Zeit            ;R_20_Resp1      ;R_21_RespA1     ;R_22_RespF1     ;U_13_SCL        ;U_15_Temp       ;U_16_BVP        ;U_17_PVA        ;U_18_Puls       ;U_19_Mot        ;Bemerkung       
00:00:00.000;10,129426;0;0;9,356974602;26,53000069;45,56776428;20,29304123;72,8155365;0,352033585;HG> Farbe
00:00:00.025;10,129426;0;0;9,356974602;26,53000069;46,81318665;20,29304123;72,8155365;0,352033585;
00:00:00.050;10,129426;0;0;9,355448723;26,53000069;51,30647278;20,29304123;72,8155365;0,316111803;
00:00:00.075;10,129426;0;0;9,355448723;26,54000092;57,70451736;20,29304123;72,8155365;0,316111803;
00:00:00.100;10,129426;0;0;9,355448723;26,54000092;62,00244141;20,29304123;72,8155365;0,316111803;
00:00:00.125;10,129426;0;0;9,355448723;26,54000092;63,58974457;20,29304123;72,8155365;0,316111803;
00:00:00.150;10,129426;0;0;9,353922844;26,54000092;63,24786377;20,31746101;71,77033234;0,193977699;
00:00:00.175;10,129426;0;0;9,352396965;26,54000092;61,88034058;20,31746101;71,77033234;0,193977699;
00:00:00.200;10,129426;0;0;9,349345207;26,54000092;60,63492203;20,31746101;71,77033234;0,193977699;
00:00:00.225;10,129426;0;0;9,346293449;26,54000092;57,28937912;20,31746101;71,77033234;0,193977699;
00:00:00.250;10,129426;0;0;9,346293449;26,54000092;51,67277145;20,31746101;71,77033234;0,193977699;
00:00:00.275;10,129426;0;0;9,343241692;26,54000092;49,47496796;20,31746101;71,77033234;0,193977699;
00:00:00.300;10,129426;0;0;9,340189934;26,54000092;48,47374725;20,31746101;71,77033234;0,071843587;
00:00:00.325;10,129426;0;0;9,337138176;26,54000092;47,91208649;20,31746101;71,77033234;0,071843587;
00:00:00.350;10,129426;0;0;9,337138176;26,54000092;47,91208649;20,31746101;71,77033234;0,071843587;
00:00:00.375;10,129426;0;0;9,335612297;26,54000092;48,20512772;20,31746101;71,77033234;0,071843587;
00:00:00.400;10,129426;0;0;9,334086418;26,54000092;47,42368698;20,31746101;71,77033234;0,05747487;
00:00:00.425;10,129426;0;0;9,332560539;26,54000092;46,83760834;20,31746101;71,77033234;0,05747487;
00:00:00.450;10,129426;0;0;9,329508781;26,54000092;46,12942505;20,31746101;71,77033234;0,05747487;
00:00:00.475;10,129426;0;0;9,327981949;26,54000092;45,61660385;20,31746101;71,77033234;0,05747487;
00:00:00.500;10,129426;0;0;9,324930191;26,54000092;44,3711853;20,31746101;71,77033234;0,05747487;
00:00:00.525;10,129426;0;0;9,323404312;26,54000092;44,12698364;20,31746101;71,77033234;0,05747487;
00:00:00.550;10,129426;0;0;9,321878433;26,54000092;44,51770401;20,31746101;71,77033234;0,05747487;
00:00:00.575;10,129426;0;0;9,321878433;26,54000092;45,0549469;20,31746101;71,77033234;0,05747487;
00:00:00.600;10,129426;0;0;9,320352554;26,54000092;45,25030518;20,31746101;71,77033234;0,05747487;
00:00:00.625;10,129426;0;0;9,318826675;26,54000092;45,61660385;20,31746101;71,77033234;0,05747487;
00:00:00.650;10,129426;0;0;9,317300797;26,54000092;45,81196594;20,31746101;71,77033234;0,05747487;
00:00:00.675;10,129426;0;0;9,315774918;26,54000092;45,17704391;20,31746101;71,77033234;0,05747487;
00:00:00.700;10,129426;0;0;9,31272316;26,54000092;42,61294174;20,31746101;71,77033234;0,05747487;
00:00:00.725;10,129426;0;0;9,31272316;26,54000092;41,26984024;20,31746101;71,77033234;0,05747487;
00:00:00.750;10,129426;0;0;9,309671402;26,54000092;40,8302803;20,31746101;71,77033234;0,05747487;
00:00:00.775;10,129426;0;0;9,308145523;26,54000092;40,8302803;20,31746101;71,77033234;0,05747487;
00:00:00.800;10,129426;0;0;9,305093765;26,54000092;41,05006027;20,31746101;71,77033234;0,05747487;
00:00:00.825;10,129426;0;0;9,303567886;26,54000092;41,83150101;20,31746101;71,77033234;0,05747487;
00:00:00.850;10,129426;0;0;9,300516129;26,54000092;45,25030518;20,31746101;71,77033234;0,05747487;
00:00:00.875;10,129426;0;0;9,29899025;26,54000092;51,35531235;20,31746101;71,77033234;0,05747487;
00:00:00.900;10,129426;0;0;9,29899025;26,54000092;57,8021965;20,31746101;71,77033234;0,05747487;
00:00:00.925;10,129426;0;0;9,297464371;26,54000092;64,17582703;20,31746101;71,77033234;0,05747487;
00:00:00.950;10,129426;0;0;9,294411659;26,54000092;63,540905;20,31746101;71,77033234;0,05747487;
00:00:00.975;10,129426;0;0;9,291359901;26,54000092;63,15018463;20,31746101;71,25891113;0,05747487;
00:00:01.000;10,129426;0;0;9,288308144;26,54000092;61,80708313;20,31746101;71,25891113;0,107765384;
00:00:01.025;10,129426;0;0;9,285256386;26,54000092;59,29182053;20,31746101;71,25891113;0,107765384;
00:00:01.050;10,129426;0;0;9,285256386;26,54999924;55,70207596;20,31746101;71,25891113;0,107765384;
00:00:01.075;10,129426;0;0;9,280678749;26,54999924;51,84371185;20,31746101;71,25891113;0,107765384;
00:00:01.100;10,129426;0;0;9,280678749;26,54999924;50,10988998;20,31746101;71,25891113;0,107765384;
00:00:01.125;10,129426;0;0;9,277626991;26,54999924;49,23077011;20,31746101;71,25891113;0,229899481;
00:00:01.150;10,129426;0;0;9,274575233;26,54999924;48,88888931;20,31746101;71,25891113;0,229899481;
00:00:01.175;10,129426;0;0;9,271523476;26,54999924;48,18070984;20,31746101;71,25891113;0,229899481;
00:00:01.200;10,129426;0;0;9,271523476;26,54999924;47,71672821;20,31746101;71,25891113;0,229899481;
00:00:01.225;10,129426;0;0;9,269997597;26,54999924;46,44688797;20,31746101;71,25891113;0,287374347;
00:00:01.250;10,129426;0;0;9,269997597;26,54999924;44,76190567;20,31746101;71,25891113;0,287374347;
00:00:01.275;10,129426;0;0;9,265419006;26,54999924;41,80708313;20,31746101;71,25891113;0,287374347;
00:00:01.300;10,129426;0;0;9,263893127;26,54999924;41,19658279;20,31746101;71,25891113;0,287374347;
00:00:01.325;10,129426;0;0;9,26084137;26,54999924;40,63492203;20,31746101;71,25891113;0,287374347;
00:00:01.350;10,129426;0;0;9,257789612;26,54999924;40,56166077;20,31746101;71,25891113;0,287374347;
00:00:01.375;10,129426;0;0;9,254737854;26,54999924;40,24420166;20,31746101;71,25891113;0,287374347;
00:00:01.400;10,129426;0;0;9,254737854;26,54999924;40,39072037;20,31746101;71,25891113;0,287374347;
00:00:01.425;10,129426;0;0;9,253211975;26,54999924;41,0012207;20,31746101;71,25891113;0,280189991;
00:00:01.450;10,129426;0;0;9,250160217;26,54999924;42,07570267;20,31746101;71,25891113;0,280189991;
00:00:01.475;10,129426;0;0;9,247108459;26,54999924;42,686203;20,31746101;71,25891113;0,280189991;
00:00:01.500;10,129426;0;0;9,244056702;26,54999924;43,27228165;20,31746101;71,25891113;0,280189991;
00:00:01.525;10,129426;0;0;9,241004944;26,54999924;43,7118454;20,31746101;71,25891113;0,280189991;
00:00:01.550;10,129426;0;0;9,237953186;26,54999924;44,10256577;20,31746101;71,25891113;0,158055902;
00:00:01.575;10,129426;0;0;9,237953186;26,54999924;44,29792404;20,31746101;71,25891113;0,158055902;
00:00:01.600;10,129426;0;0;9,233374596;26,54999924;44,78632355;20,31746101;71,25891113;0,158055902;
00:00:01.625;10,129426;0;0;9,230322838;26,54999924;45,51892471;20,31746101;71,25891113;0,122134104;
00:00:01.650;10,129426;0;0;9,22727108;26,54999924;46,78876495;20,31746101;71,25891113;0,122134104;
00:00:01.675;10,129426;0;0;9,219641685;26,54999924;56,11721802;20,31746101;71,25891113;0,122134104;
00:00:01.700;10,129426;0;0;9,216589928;26,54999924;56,11721802;20,31746101;71,25891113;0,122134104;
00:00:01.725;10,129426;0;0;9,216589928;26,54999924;61,73382187;20,31746101;71,25891113;0,122134104;
00:00:01.750;10,129426;0;0;9,21353817;26,54999924;64,27350616;20,31746101;71,25891113;0,122134104;
00:00:01.775;10,129426;0;0;9,212012291;26,54999924;63,49206161;20,31746101;71,25891113;0,122134104;
00:00:01.800;10,129426;0;0;9,208960533;26,54999924;62,24664307;23,80952454;71,00592041;0,122134104;
00:00:01.825;10,129426;0;0;9,207434654;26,54999924;60,61050034;23,80952454;71,00592041;0,122134104;
00:00:01.850;10,129426;0;0;9,202856064;26,54999924;59,04761887;23,80952454;71,00592041;0,079027951;
00:00:01.875;10,129426;0;0;9,199804306;26,54999924;57,33821869;23,80952454;71,00592041;0,079027951;
00:00:01.900;10,129426;0;0;9,199804306;26,54999924;54,87179565;23,80952454;71,00592041;0,079027951;
00:00:01.925;10,129426;0;0;9,195226669;26,54999924;53,23565292;23,80952454;71,00592041;0,079027951;
00:00:01.950;10,129426;0;0;9,189123154;26,54999924;53,33333206;23,80952454;71,00592041;0,079027951;
00:00:01.975;10,129426;0;0;9,186071396;26,54999924;53,55311203;23,80952454;71,00592041;0,079027951;
00:00:02.000;10,129426;0;0;9,183019638;26,55999947;52,96703339;23,80952454;71,00592041;0,079027951;
00:00:02.025;10,129426;0;0;9,17996788;26,55999947;51,62393188;23,80952454;71,00592041;0,079027951;
00:00:02.050;10,129426;0;0;9,178442001;26,55999947;50,13431168;23,80952454;71,00592041;0,107765384;
00:00:02.075;10,129426;0;0;9,178442001;26,55999947;49,47496796;23,80952454;71,00592041;0,107765384;
00:00:02.100;10,129426;0;0;9,176916122;26,55999947;48,03418732;23,80952454;71,00592041;0,107765384;
00:00:02.125;10,129426;0;0;9,173864365;26,55999947;47,15506744;23,80952454;71,00592041;0,107765384;
00:00:02.150;10,129426;0;0;9,170811653;26,55999947;46,25152588;23,80952454;71,00592041;0,107765384;
00:00:02.175;10,129426;0;0;9,164708138;26,55999947;45,42124557;23,80952454;71,00592041;0,107765384;
00:00:02.200;10,129426;0;0;9,16165638;26,55999947;44,5421257;23,80952454;71,00592041;0,107765384;
00:00:02.225;10,129426;0;0;9,16165638;26,55999947;43,80952454;23,80952454;71,00592041;0,107765384;
00:00:02.250;10,129426;0;0;9,157078743;26,55999947;42,58852386;23,80952454;71,00592041;0,093396664;
00:00:02.275;10,129426;0;0;9,155552864;26,55999947;41,66056061;23,80952454;71,00592041;0,093396664;
00:00:02.300;10,129426;0;0;9,152501106;26,55999947;40,6593399;23,80952454;71,00592041;0,093396664;
00:00:02.325;10,129426;0;0;9,150975227;26,55999947;40,53723907;23,80952454;71,00592041;0,093396664;
00:00:02.350;10,129426;0;0;9,14792347;26,55999947;40,95238113;23,80952454;71,00592041;0,093396664;
00:00:02.375;10,129426;0;0;9,146397591;26,55999947;41,58730316;23,80952454;71,00592041;0,107765384;
00:00:02.400;10,129426;0;0;9,146397591;26,55999947;42,44200134;23,80952454;71,00592041;0,107765384;
00:00:02.425;10,129426;0;0;9,143345833;26,55999947;42,90598297;23,80952454;71,00592041;0,107765384;
00:00:02.450;10,129426;0;0;9,141819954;26,55999947;43,24786377;23,80952454;71,00592041;0,079027951;
00:00:02.475;10,129426;0;0;9,138767242;26,55999947;49,35287094;23,80952454;71,00592041;0,079027951;
00:00:02.500;10,129426;0;0;9,137241364;26,55999947;55,94627762;23,80952454;71,00592041;0,079027951;
00:00:02.525;10,129426;0;0;9,132663727;26,55999947;61,53845978;23,80952454;71,00592041;0,079027951;
00:00:02.550;10,129426;0;0;9,129611969;26,55999947;64,24908447;23,80952454;71,00592041;0,079027951;
00:00:02.575;10,129426;0;0;9,129611969;26,55999947;64,81074524;23,80952454;71,00592041;0,079027951;
00:00:02.600;10,129426;0;0;9,12808609;26,55999947;64,3711853;23,80952454;71,00592041;0,079027951;
00:00:02.625;10,129426;0;0;9,125034332;26,55999947;63,49206161;24,59096527;71,21661377;0,079027951;
00:00:02.650;10,129426;0;0;9,121982574;26,55999947;62,3687439;24,59096527;71,21661377;0,079027951;
00:00:02.675;10,129426;0;0;9,115879059;26,55999947;60,3418808;24,59096527;71,21661377;0,079027951;
00:00:02.700;10,129426;0;0;9,111301422;26,55999947;57,36263657;24,59096527;71,21661377;0,079027951;
00:00:02.725;10,129426;0;0;9,111301422;26,55999947;54,04151535;24,59096527;71,21661377;0,079027951;
00:00:02.750;10,129426;0;0;9,108248711;26,55999947;51,96581268;24,59096527;71,21661377;0,079027951;
00:00:02.775;10,129426;0;0;9,102145195;26,55999947;50,50061035;24,59096527;71,21661377;0,079027951;
00:00:02.800;10,129426;0;0;9,099093437;26,55999947;50,42734909;24,59096527;71,21661377;0,071843587;
00:00:02.825;10,129426;0;0;9,096041679;26,55999947;49,30402756;24,59096527;71,21661377;0,071843587;
00:00:02.850;10,129426;0;0;9,0945158;26,55999947;48,59584808;24,59096527;71,21661377;0,071843587;
00:00:02.875;10,129426;0;0;9,092989922;26,55999947;47,47252655;24,59096527;71,21661377;0,071843587;
00:00:02.900;10,129426;0;0;9,092989922;26,55999947;47,03296661;24,59096527;71,21661377;0,129318461;
00:00:02.925;10,129426;0;0;9,091464043;26,55999947;45,98290634;24,59096527;71,21661377;0,129318461;
00:00:02.950;10,129426;0;0;9,089938164;26,55999947;45,10378647;24,59096527;71,21661377;0,129318461;
00:00:02.975;10,129426;0;0;9,088412285;26,55999947;44,83516312;24,59096527;71,21661377;0,129318461;
00:00:03.000;10,129426;0;0;9,085360527;26,55999947;44,32234573;24,59096527;71,21661377;0,129318461;
00:00:03.025;10,129426;0;0;9,083834648;26,55999947;44,59096527;24,59096527;71,21661377;0,129318461;
00:00:03.050;10,129426;0;0;9,082308769;26,55999947;44,00488281;24,59096527;71,21661377;0,129318461;
00:00:03.075;10,129426;0;0;9,08078289;26,55999947;43,93162537;24,59096527;71,21661377;0,179608971;
00:00:03.100;10,129426;0;0;9,077730179;26,55999947;43,78510284;24,59096527;71,21661377;0,179608971;
00:00:03.125;10,129426;0;0;9,0762043;26,55999947;42,66178131;24,59096527;71,21661377;0,179608971;
00:00:03.150;10,129426;0;0;9,074678421;26,55999947;40,58608246;24,59096527;71,21661377;0,179608971;
00:00:03.175;10,129426;0;0;9,071626663;26,55999947;40,61050034;24,59096527;71,21661377;0,165240258;
00:00:03.200;10,129426;0;0;9,070100784;26,55999947;40,58608246;24,59096527;71,21661377;0,165240258;
00:00:03.225;10,129426;0;0;9,070100784;26,55999947;40,26861954;24,59096527;71,21661377;0,165240258;
00:00:03.250;10,129426;0;0;9,068574905;26,55999947;40,92795944;24,59096527;71,21661377;0,165240258;
00:00:03.275;10,129426;0;0;9,067049026;26,55999947;45,15262604;24,59096527;71,21661377;0,165240258;
00:00:03.300;10,129426;0;0;9,065523148;26,56999969;51,47741318;24,59096527;71,21661377;0,122134104;
00:00:03.325;10,129426;0;0;9,063997269;26,56999969;58,33943939;24,59096527;71,21661377;0,122134104;
00:00:03.350;10,129426;0;0;9,060945511;26,56999969;61,80708313;24,59096527;71,21661377;0,122134104;
00:00:03.375;10,129426;0;0;9,059419632;26,56999969;62,29548264;24,59096527;71,21661377;0,122134104;
00:00:03.400;10,129426;0;0;9,059419632;26,56999969;61,07448196;24,59096527;71,34363556;0,122134104;
00:00:03.425;10,129426;0;0;9,059419632;26,56999969;60,26861954;24,34676361;71,34363556;0,122134104;
00:00:03.450;10,129426;0;0;9,056367874;26,56999969;57,26495743;24,34676361;71,34363556;0,122134104;
00:00:03.475;10,129426;0;0;9,053316116;26,56999969;55,33577347;24,34676361;71,34363556;0,122134104;
00:00:03.500;10,129426;0;0;9,051790237;26,56999969;53,01587296;24,34676361;71,34363556;0,071843587;
00:00:03.525;10,129426;0;0;9,050264359;26,56999969;51,15995026;24,34676361;71,34363556;0,071843587;
00:00:03.550;10,129426;0;0;9,050264359;26,56999969;50,03662872;24,34676361;71,34363556;0,071843587;
00:00:03.575;10,129426;0;0;9,04873848;26,56999969;50,01221085;24,34676361;71,34363556;0,071843587;
00:00:03.600;10,129426;0;0;9,04873848;26,56999969;50,15872955;24,34676361;71,34363556;0,05747487;
00:00:03.625;10,129426;0;0;9,047212601;26,56999969;50,64712906;24,34676361;71,34363556;0,05747487;
00:00:03.650;10,129426;0;0;9,047212601;26,56999969;50,52503204;24,34676361;71,34363556;0,05747487;
00:00:03.675;10,129426;0;0;9,045685768;26,56999969;50,79365158;24,34676361;71,34363556;0,05747487;
00:00:03.700;10,129426;0;0;9,044159889;26,56999969;50,59828949;24,34676361;71,34363556;0,079027951;
00:00:03.725;10,129426;0;0;9,044159889;26,56999969;49,98778915;24,34676361;71,34363556;0,079027951;
00:00:03.750;10,129426;0;0;9,04263401;26,56999969;48,86446762;24,34676361;71,34363556;0,079027951;
00:00:03.775;10,129426;0;0;9,04263401;26,56999969;46,88644791;24,34676361;71,34363556;0,079027951;
00:00:03.800;10,129426;0;0;9,041108131;26,56999969;45,66544724;24,34676361;71,34363556;0,079027951;
00:00:03.825;10,129426;0;0;9,041108131;26,56999969;45,15262604;24,34676361;71,34363556;0,079027951;
00:00:03.850;10,129426;0;0;9,039582253;26,56999969;44,44444275;24,34676361;71,34363556;0,079027951;
00:00:03.875;10,129426;0;0;9,038056374;26,56999969;44,42002487;24,34676361;71,34363556;0,079027951;
00:00:03.900;10,129426;0;0;9,038056374;26,56999969;44,29792404;24,34676361;71,34363556;0,079027951;
00:00:03.925;10,129426;0;0;9,036530495;26,57999992;43,85836411;24,34676361;71,34363556;0,093396664;
00:00:03.950;10,129426;0;0;9,035004616;26,57999992;43,24786377;24,34676361;71,34363556;0,093396664;
00:00:03.975;10,129426;0;0;9,033478737;26,57999992;42,5152626;24,34676361;71,34363556;0,093396664;
00:00:04.000;10,129426;0;0;9,031952858;26,57999992;42,31990051;24,34676361;71,34363556;0,093396664;
00:00:04.025;10,129426;0;0;9,030426979;26,57999992;42,49084091;24,34676361;71,34363556;0,093396664;
00:00:04.050;10,129426;0;0;9,0289011;26,57999992;42,27106094;24,34676361;71,34363556;0,093396664;
00:00:04.075;10,129426;0;0;9,0289011;26,57999992;43,78510284;24,34676361;71,34363556;0,093396664;
00:00:04.100;10,129426;0;0;9,0289011;26,57999992;48,49816895;24,34676361;71,34363556;0,093396664;
00:00:04.125;10,129426;0;0;9,0289011;26,57999992;55,18925476;24,34676361;71,34363556;0,071843587;
00:00:04.150;10,129426;0;0;9,0289011;26,57999992;60,48839951;24,34676361;71,34363556;0,071843587;
00:00:04.175;10,129426;0;0;9,0289011;26,57999992;62,95482254;24,34676361;71,34363556;0,071843587;
00:00:04.200;10,129426;0;0;9,0289011;26,57999992;63,10134125;24,34676361;71,34363556;0,071843587;
00:00:04.225;10,129426;0;0;9,0289011;26,57999992;61,26984024;24,34676361;71,34363556;0,071843587;
00:00:04.250;10,129426;0;0;9,0289011;26,57999992;59,90232086;22,44200325;71,38607788;0,071843587;
00:00:04.275;10,129426;0;0;9,027375221;26,57999992;58,11965942;22,44200325;71,38607788;0,071843587;
00:00:04.300;10,129426;0;0;9,025849342;26,57999992;54,13919449;22,44200325;71,38607788;0,071843587;
00:00:04.325;10,129426;0;0;9,025849342;26,57999992;52,18559265;22,44200325;71,38607788;0,05747487;
00:00:04.350;10,129426;0;0;9,024323463;26,57999992;50,30525208;22,44200325;71,38607788;0,05747487;
00:00:04.375;10,129426;0;0;9,024323463;26,57999992;49,64590836;22,44200325;71,38607788;0,05747487;
00:00:04.400;10,129426;0;0;9,024323463;26,57999992;50,45177078;22,44200325;71,38607788;0,05747487;
00:00:04.425;10,129426;0;0;9,022797585;26,57999992;50,50061035;22,44200325;71,38607788;0,05747487;
00:00:04.450;10,129426;0;0;9,022797585;26,57999992;50,15872955;22,44200325;71,38607788;0,107765384;
00:00:04.475;10,129426;0;0;9,022797585;26,57999992;49,10866928;22,44200325;71,38607788;0,107765384;
00:00:04.500;10,129426;0;0;9,022797585;26,57999992;48,03418732;22,44200325;71,38607788;0,107765384;
00:00:04.525;10,129426;0;0;9,022797585;26,57999992;47,20390701;22,44200325;71,38607788;0,193977699;
00:00:04.550;10,129426;0;0;9,022797585;26,57999992;46,12942505;22,44200325;71,38607788;0,193977699;
00:00:04.575;10,129426;0;0;9,021271706;26,57999992;44,59096527;22,44200325;71,38607788;0,193977699;
00:00:04.600;10,129426;0;0;9,021271706;26,57999992;44,39560318;22,44200325;71,38607788;0,193977699;
00:00:04.625;10,129426;0;0;9,021271706;26,57999992;44,32234573;22,44200325;71,38607788;0,193977699;
00:00:04.650;10,129426;0;0;9,021271706;26,57999992;44,66422653;22,44200325;71,38607788;0,193977699;
00:00:04.675;10,129426;0;0;9,019745827;26,57999992;44,8840065;22,44200325;71,38607788;0,193977699;
00:00:04.700;10,129426;0;0;9,019745827;26,57999992;45,07936478;22,44200325;71,38607788;0,193977699;
00:00:04.725;10,129426;0;0;9,019745827;26,57999992;44,90842438;22,44200325;71,38607788;0,193977699;
00:00:04.750;10,129426;0;0;9,019745827;26,57999992;45,12820435;22,44200325;71,38607788;0,215530768;
00:00:04.775;10,129426;0;0;9,019745827;26,57999992;44,22466278;22,44200325;71,38607788;0,215530768;
00:00:04.800;10,129426;0;0;9,019745827;26,57999992;44,22466278;22,44200325;71,38607788;0,215530768;
00:00:04.825;10,129426;0;0;9,019745827;26,57999992;44,22466278;22,44200325;71,38607788;0,215530768;
00:00:04.850;10,129426;0;0;9,018219948;26,57999992;43,95604324;22,44200325;71,38607788;0,158055902;
00:00:04.875;10,129426;0;0;9,018219948;26,59000015;47,47252655;22,44200325;71,38607788;0,158055902;
00:00:04.900;10,129426;0;0;9,016694069;26,59000015;52,84493256;22,44200325;71,38607788;0,158055902;
00:00:04.925;10,129426;0;0;9,016694069;26,59000015;58,53479767;22,44200325;71,38607788;0,158055902;
00:00:04.950;10,129426;0;0;9,015167236;26,59000015;60,95238113;22,44200325;71,38607788;0,071843587;
00:00:04.975;10,129426;0;0;9,015167236;26,59000015;61,8559227;22,44200325;71,38607788;0,071843587;
00:00:05.000;10,129426;0;0;9,015167236;26,59000015;60,39072037;22,44200325;71,38607788;0,071843587;
00:00:05.025;10,129426;0;0;9,015167236;26,59000015;58,60805893;20,95238113;73,34963226;0,071843587;
00:00:05.050;10,129426;0;0;9,015167236;26,59000015;56,8009758;20,95238113;73,34963226;0,071843587;
00:00:05.075;10,129426;0;0;9,015167236;26,59000015;54,99389648;20,95238113;73,34963226;0,071843587;
00:00:05.100;10,129426;0;0;9,012115479;26,59000015;50,42734909;20,95238113;73,34963226;0,071843587;
00:00:05.125;10,129426;0;0;9,0105896;26,59000015;48,84004974;20,95238113;73,34963226;0,071843587;
00:00:05.150;10,129426;0;0;9,007537842;26,59000015;47,66788864;20,95238113;73,34963226;0,05747487;
00:00:05.175;10,129426;0;0;9,006011963;26,59000015;48,00976944;20,95238113;73,34963226;0,05747487;
00:00:05.200;10,129426;0;0;9,002960205;26,59000015;47,96092606;20,95238113;73,34963226;0,05747487;
00:00:05.225;10,129426;0;0;9,002960205;26,59000015;47,42368698;20,95238113;73,34963226;0,05747487;
00:00:05.250;10,129426;0;0;9,002960205;26,59000015;46,54456711;20,95238113;73,34963226;0,05747487;
00:00:05.275;10,129426;0;0;9,002960205;26,59000015;45,78754425;20,95238113;73,34963226;0,05747487;
00:00:05.300;10,129426;0;0;9,002960205;26,59000015;44,51770401;20,95238113;73,34963226;0,05747487;
00:00:05.325;10,129426;0;0;9,002960205;26,59000015;43,95604324;20,95238113;73,34963226;0,05747487;
00:00:05.350;10,129426;0;0;9,001434326;26,59000015;43,17460251;20,95238113;73,34963226;0,05747487;
00:00:05.375;10,129426;0;0;9,001434326;26,59000015;43,17460251;20,95238113;73,34963226;0,05747487;
00:00:05.400;10,129426;0;0;9,001434326;26,59000015;43,0280838;20,95238113;73,34963226;0,05747487;
00:00:05.425;10,129426;0;0;9,001434326;26,59000015;43,22344208;20,95238113;73,34963226;0,05747487;
00:00:05.450;10,129426;0;0;9,001434326;26,59000015;44,0293045;20,95238113;73,34963226;0,05747487;
00:00:05.475;10,129426;0;0;8,999908447;26,59000015;43,88278198;20,95238113;73,34963226;0,05747487;
00:00:05.500;10,129426;0;0;8,999908447;26,59000015;44,10256577;20,95238113;73,34963226;0,05747487;
00:00:05.525;10,129426;0;0;8,998382568;26,59000015;43,63858414;20,95238113;73,34963226;0,05747487;
00:00:05.550;10,129426;0;0;8,996856689;26,59000015;43,49206161;20,95238113;73,34963226;0,05747487;
00:00:05.575;10,129426;0;0;8,996856689;26,59000015;42,78388214;20,95238113;73,34963226;0,071843587;
00:00:05.600;10,129426;0;0;8,996856689;26,59000015;43,44322205;20,95238113;73,34963226;0,071843587;
00:00:05.625;10,129426;0;0;8,995330811;26,59000015;44,3711853;20,95238113;73,34963226;0,071843587;
00:00:05.650;10,129426;0;0;8,993804932;26,59000015;47,64346695;20,95238113;73,34963226;0,071843587;
00:00:05.675;10,129426;0;0;8,992279053;26,59000015;53,43101501;20,95238113;73,34963226;0,071843587;
00:00:05.700;10,129426;0;0;8,990753174;26,59000015;59,02319717;20,95238113;73,34963226;0,071843587;
00:00:05.725;10,129426;0;0;8,990753174;26,59000015;61,0256424;20,95238113;73,34963226;0,071843587;
00:00:05.750;10,129426;0;0;8,989227295;26,59000015;61,83150101;20,95238113;73,34963226;0,071843587;
00:00:05.775;10,129426;0;0;8,989227295;26,59000015;60,63492203;18,73015785;74,71980286;0,093396664;
00:00:05.800;10,129426;0;0;8,987701416;26,59000015;59,51160049;18,73015785;74,71980286;0,093396664;
00:00:05.825;10,129426;0;0;8,986175537;26,59000015;57,99755859;18,73015785;74,71980286;0,093396664;
00:00:05.850;10,129426;0;0;8,984649658;26,59000015;56,04395676;18,73015785;74,71980286;0,093396664;
00:00:05.875;10,129426;0;0;8,984649658;26,59000015;53,13797379;18,73015785;74,71980286;0,093396664;
00:00:05.900;10,129426;0;0;8,984649658;26,59000015;50,74481201;18,73015785;74,71980286;0,093396664;
00:00:05.925;10,129426;0;0;8,983122826;26,59000015;48,84004974;18,73015785;74,71980286;0,093396664;
00:00:05.950;10,129426;0;0;8,981596947;26,59000015;48,96215057;18,73015785;74,71980286;0,093396664;
00:00:05.975;10,129426;0;0;8,980071068;26,59000015;48,66910934;18,73015785;74,71980286;0,071843587;
00:00:06.000;10,129426;0;0;8,97701931;26,59000015;48,25396729;18,73015785;74,71980286;0,071843587;
00:00:06.025;10,129426;0;0;8,975493431;26,59000015;47,69230652;18,73015785;74,71980286;0,071843587;
00:00:06.050;10,129426;0;0;8,972441673;26,59000015;46,34920502;18,73015785;74,71980286;0,071843587;
00:00:06.075;10,129426;0;0;8,970915794;26,59000015;45,49450684;18,73015785;74,71980286;0,071843587;
00:00:06.100;10,129426;0;0;8,970915794;26,59000015;44,95726395;18,73015785;74,71980286;0,071843587;
00:00:06.125;10,129426;0;0;8,967864037;26,59000015;43,90720367;18,73015785;74,71980286;0,071843587;
00:00:06.150;10,129426;0;0;8,966338158;26,59000015;44,15140533;18,73015785;74,71980286;0,071843587;
00:00:06.175;10,129426;0;0;8,9632864;26,60000038;44,29792404;18,73015785;74,71980286;0,071843587;
00:00:06.200;10,129426;0;0;8,961760521;26,60000038;44,39560318;18,73015785;74,71980286;0,071843587;
00:00:06.225;10,129426;0;0;8,961760521;26,60000038;44,76190567;18,73015785;74,71980286;0,05747487;
00:00:06.250;10,129426;0;0;8,960234642;26,60000038;44,81074524;18,73015785;74,71980286;0,05747487;
00:00:06.275;10,129426;0;0;8,958708763;26,60000038;45,39682388;18,73015785;74,71980286;0,05747487;
00:00:06.300;10,129426;0;0;8,958708763;26,60000038;44,93284607;18,73015785;74,71980286;0,05747487;
00:00:06.325;10,129426;0;0;8,957182884;26,60000038;45,20146561;18,73015785;74,71980286;0,05747487;
00:00:06.350;10,129426;0;0;8,955657005;26,60000038;44,8840065;18,73015785;74,71980286;0,05747487;
00:00:06.375;10,129426;0;0;8,955657005;26,60000038;44,68864441;18,73015785;74,71980286;0,05747487;
00:00:06.400;10,129426;0;0;8,955657005;26,60000038;44,42002487;18,73015785;74,71980286;0,079027951;
00:00:06.425;10,129426;0;0;8,954131126;26,60000038;45,39682388;18,73015785;74,71980286;0,079027951;
00:00:06.450;10,129426;0;0;8,954131126;26,60000038;48,40048981;18,73015785;74,71980286;0,079027951;
00:00:06.475;10,129426;0;0;8,952604294;26,60000038;54,45665359;18,73015785;74,71980286;0,079027951;
00:00:06.500;10,129426;0;0;8,952604294;26,60000038;59,09645844;18,73015785;74,71980286;0,079027951;
00:00:06.525;10,129426;0;0;8,951078415;26,60000038;61,95360184;18,73015785;74,71980286;0,129318461;
00:00:06.550;10,129426;0;0;8,949552536;26,60000038;61,58730316;18,73015785;74,71980286;0,129318461;
00:00:06.575;10,129426;0;0;8,949552536;26,60000038;60,6593399;19,14529991;75,424263;0,129318461;
00:00:06.600;10,129426;0;0;8,948026657;26,60000038;59,3162384;19,14529991;75,424263;0,143687174;
00:00:06.625;10,129426;0;0;8,948026657;26,60000038;58,26617813;19,14529991;75,424263;0,143687174;
00:00:06.650;10,129426;0;0;8,944974899;26,60000038;55,7997551;19,14529991;75,424263;0,143687174;
00:00:06.675;10,129426;0;0;8,94344902;26,60000038;53,45543289;19,14529991;75,424263;0,143687174;
00:00:06.700;10,129426;0;0;8,941923141;26,60000038;50,20756912;19,14529991;75,424263;0,143687174;
00:00:06.725;10,129426;0;0;8,941923141;26,60000038;49,23077011;19,14529991;75,424263;0,143687174;
00:00:06.750;10,129426;0;0;8,940397263;26,60000038;48,57143021;19,14529991;75,424263;0,143687174;
00:00:06.775;10,129426;0;0;8,937345505;26,60000038;48,32722855;19,14529991;75,424263;0,143687174;
00:00:06.800;10,129426;0;0;8,935819626;26,60000038;47,69230652;19,14529991;75,424263;0,143687174;
00:00:06.825;10,129426;0;0;8,934293747;26,60000038;47,69230652;19,14529991;75,424263;0,122134104;
00:00:06.850;10,129426;0;0;8,932767868;26,60000038;46,61782837;19,14529991;75,424263;0,122134104;
00:00:06.875;10,129426;0;0;8,92971611;26,60000038;45,51892471;19,14529991;75,424263;0,122134104;
00:00:06.900;10,129426;0;0;8,92971611;26,60000038;44,68864441;19,14529991;75,424263;0,122134104;
00:00:06.925;10,129426;0;0;8,928190231;26,60000038;44,12698364;19,14529991;75,424263;0,05747487;
00:00:06.950;10,129426;0;0;8,926664352;26,60000038;43,88278198;19,14529991;75,424263;0,05747487;
00:00:06.975;10,129426;0;0;8,925138474;26,60000038;43,98046494;19,14529991;75,424263;0,05747487;
00:00:07.000;10,129426;0;0;8,923612595;26,60000038;44,3711853;19,14529991;75,424263;0,05747487;
00:00:07.025;10,129426;0;0;8,922086716;26,60000038;44,49328613;19,14529991;75,424263;0;
00:00:07.050;10,129426;0;0;8,922086716;26,60000038;44,90842438;19,14529991;75,424263;0;
00:00:07.075;10,129426;0;0;8,922086716;26,60000038;44,39560318;19,14529991;75,424263;0;
00:00:07.100;10,129426;0;0;8,919034004;26,60000038;44,61538315;19,14529991;75,424263;0;
00:00:07.125;10,129426;0;0;8,919034004;26,60000038;44,68864441;19,14529991;75,424263;0;
00:00:07.150;10,129426;0;0;8,917508125;26,61000061;44,5421257;19,14529991;75,424263;0;
00:00:07.175;10,129426;0;0;8,915982246;26,61000061;44,5421257;19,14529991;75,424263;0;
00:00:07.200;10,129426;0;0;8,914456367;26,61000061;44,95726395;19,14529991;75,424263;0;
00:00:07.225;10,129426;0;0;8,914456367;26,61000061;44,8840065;19,14529991;75,424263;0;
00:00:07.250;10,129426;0;0;8,912930489;26,61000061;51,23321152;19,14529991;75,424263;0;
00:00:07.275;10,129426;0;0;8,91140461;26,61000061;57,53357697;19,14529991;75,424263;0;
00:00:07.300;10,129426;0;0;8,909878731;26,61000061;60,97680283;19,14529991;75,424263;0;
00:00:07.325;10,129426;0;0;8,906826973;26,61000061;62,29548264;19,14529991;75,424263;0,05747487;
00:00:07.350;10,129426;0;0;8,902249336;26,61000061;61,88034058;19,14529991;75,424263;0,05747487;
00:00:07.375;10,129426;0;0;8,902249336;26,61000061;60,41514206;19,14529991;75,80543518;0,05747487;
00:00:07.400;10,129426;0;0;8,902249336;26,61000061;59,19413757;18,90109825;75,80543518;0,05747487;
00:00:07.425;10,129426;0;0;8,900723457;26,61000061;56,99633789;18,90109825;75,80543518;0,05747487;
00:00:07.450;10,129426;0;0;8,899197578;26,61000061;55,60439682;18,90109825;75,80543518;0,05747487;
00:00:07.475;10,129426;0;0;8,8976717;26,61000061;52,45421219;18,90109825;75,80543518;0,05747487;
00:00:07.500;10,129426;0;0;8,8976717;26,61000061;50,40293121;18,90109825;75,80543518;0,05747487;
00:00:07.525;10,129426;0;0;8,896145821;26,61000061;49,18193054;18,90109825;75,80543518;0,05747487;
00:00:07.550;10,129426;0;0;8,894619942;26,61000061;49,23077011;18,90109825;75,80543518;0,05747487;
00:00:07.575;10,129426;0;0;8,894619942;26,61000061;49,49938965;18,90109825;75,80543518;0,05747487;
00:00:07.600;10,129426;0;0;8,893094063;26,61000061;49,08424759;18,90109825;75,80543518;0,05747487;
00:00:07.625;10,129426;0;0;8,891568184;26,61000061;47,54578781;18,90109825;75,80543518;0,05747487;
00:00:07.650;10,129426;0;0;8,891568184;26,61000061;46,52014542;18,90109825;75,80543518;0,071843587;
00:00:07.675;10,129426;0;0;8,891568184;26,61000061;45,29914474;18,90109825;75,80543518;0,071843587;
00:00:07.700;10,129426;0;0;8,890041351;26,61000061;45,0549469;18,90109825;75,80543518;0,071843587;
00:00:07.725;10,129426;0;0;8,890041351;26,61000061;44,78632355;18,90109825;75,80543518;0,071843587;
00:00:07.750;10,129426;0;0;8,890041351;26,61000061;44,76190567;18,90109825;75,80543518;0,05747487;
00:00:07.775;10,129426;0;0;8,888515472;26,61000061;45,00610352;18,90109825;75,80543518;0,05747487;
00:00:07.800;10,129426;0;0;8,888515472;26,61000061;44,42002487;18,90109825;75,80543518;0,05747487;
00:00:07.825;10,129426;0;0;8,886989594;26,61000061;44,76190567;18,90109825;75,80543518;0,071843587;
00:00:07.850;10,129426;0;0;8,885463715;26,61000061;44,93284607;18,90109825;75,80543518;0,071843587;
00:00:07.875;10,129426;0;0;8,883937836;26,61000061;44,78632355;18,90109825;75,80543518;0,071843587;
00:00:07.900;10,129426;0;0;8,883937836;26,61000061;44,8840065;18,90109825;75,80543518;0,071843587;
00:00:07.925;10,129426;0;0;8,880886078;26,61000061;44,78632355;18,90109825;75,80543518;0,071843587;
00:00:07.950;10,129426;0;0;8,879360199;26,61000061;45,03052521;18,90109825;75,80543518;0,071843587;
00:00:07.975;10,129426;0;0;8,87783432;26,61000061;45,22588348;18,90109825;75,80543518;0,071843587;
00:00:08.000;10,129426;0;0;8,876308441;26,61000061;44,51770401;18,90109825;75,80543518;0,071843587;
00:00:08.025;10,129426;0;0;8,874782562;26,61000061;44,90842438;18,90109825;75,80543518;0,071843587;
00:00:08.050;10,129426;0;0;8,874782562;26,61000061;45,47008514;18,90109825;75,80543518;0,071843587;
00:00:08.075;10,129426;0;0;8,874782562;26,61000061;48,93772888;18,90109825;75,80543518;0;
00:00:08.100;10,129426;0;0;8,873256683;26,62000084;54,72527313;18,90109825;75,80543518;0;
00:00:08.125;10,129426;0;0;8,873256683;26,62000084;62,29548264;18,90109825;75,80543518;0;
00:00:08.150;10,129426;0;0;8,871730804;26,62000084;61,58730316;18,90109825;75,80543518;0;
00:00:08.175;10,129426;0;0;8,871730804;26,62000084;61,61172104;18,77899933;75,61436462;0,05747487;
00:00:08.200;10,129426;0;0;8,870204926;26,62000084;59,38949966;18,77899933;75,61436462;0,05747487;
00:00:08.225;10,129426;0;0;8,870204926;26,62000084;58,16849899;18,77899933;75,61436462;0,05747487;
00:00:08.250;10,129426;0;0;8,868679047;26,62000084;54,50549316;18,77899933;75,61436462;0,05747487;
00:00:08.275;10,129426;0;0;8,867153168;26,62000084;52,16117096;18,77899933;75,61436462;0;
00:00:08.300;10,129426;0;0;8,865627289;26,62000084;50,40293121;18,77899933;75,61436462;0;
00:00:08.325;10,129426;0;0;8,86410141;26,62000084;50,23199081;18,77899933;75,61436462;0;
00:00:08.350;10,129426;0;0;8,862575531;26,62000084;49,64590836;18,77899933;75,61436462;0;
00:00:08.375;10,129426;0;0;8,862575531;26,62000084;49,86568832;18,77899933;75,61436462;0;
00:00:08.400;10,129426;0;0;8,862575531;26,62000084;48,57143021;18,77899933;75,61436462;0;
00:00:08.425;10,129426;0;0;8,862575531;26,62000084;47,37484741;18,77899933;75,61436462;0;
00:00:08.450;10,129426;0;0;8,861049652;26,62000084;46,34920502;18,77899933;75,61436462;0;
00:00:08.475;10,129426;0;0;8,861049652;26,62000084;45,56776428;18,77899933;75,61436462;0;
00:00:08.500;10,129426;0;0;8,859523773;26,62000084;45,12820435;18,77899933;75,61436462;0;
00:00:08.525;10,129426;0;0;8,857996941;26,62000084;44,56654358;18,77899933;75,61436462;0;
00:00:08.550;10,129426;0;0;8,857996941;26,62000084;44,66422653;18,77899933;75,61436462;0;
00:00:08.575;10,129426;0;0;8,856471062;26,62000084;44,00488281;18,77899933;75,61436462;0;
00:00:08.600;10,129426;0;0;8,856471062;26,62000084;44,46886444;18,77899933;75,61436462;0;
00:00:08.625;10,129426;0;0;8,854945183;26,62000084;44,24908447;18,77899933;75,61436462;0;
00:00:08.650;10,129426;0;0;8,854945183;26,62000084;44,27350616;18,77899933;75,61436462;0;
00:00:08.675;10,129426;0;0;8,853419304;26,62000084;44,07814407;18,77899933;75,61436462;0;
00:00:08.700;10,129426;0;0;8,853419304;26,62000084;44,34676361;18,77899933;75,61436462;0;
00:00:08.725;10,129426;0;0;8,853419304;26,62999916;43,56532288;18,77899933;75,61436462;0;
00:00:08.750;10,129426;0;0;8,853419304;26,62999916;43,85836411;18,77899933;75,61436462;0;
00:00:08.775;10,129426;0;0;8,851893425;26,62999916;43,41880417;18,77899933;75,61436462;0;
00:00:08.800;10,129426;0;0;8,851893425;26,62999916;43,66300201;18,77899933;75,61436462;0;
00:00:08.825;10,129426;0;0;8,850367546;26,62999916;45,73870468;18,77899933;75,61436462;0;
00:00:08.850;10,129426;0;0;8,850367546;26,62999916;50,72039032;18,77899933;75,61436462;0;
00:00:08.875;10,129426;0;0;8,848841667;26,62999916;56,19047546;18,77899933;75,61436462;0;
00:00:08.900;10,129426;0;0;8,848841667;26,62999916;60,56166077;18,77899933;75,61436462;0;
00:00:08.925;10,129426;0;0;8,848841667;26,62999916;61,75824356;18,77899933;75,61436462;0;
00:00:08.950;10,129426;0;0;8,847315788;26,62999916;61,95360184;18,77899933;75,61436462;0;
00:00:08.975;10,129426;0;0;8,845789909;26,62999916;60,24420166;18,36385918;73,84615326;0,071843587;
00:00:09.000;10,129426;0;0;8,845789909;26,62999916;59,04761887;18,36385918;73,84615326;0,071843587;
00:00:09.025;10,129426;0;0;8,842738152;26,62999916;57,70451736;18,36385918;73,84615326;0,071843587;
00:00:09.050;10,129426;0;0;8,842738152;26,62999916;56,16605759;18,36385918;73,84615326;0,071843587;
00:00:09.075;10,129426;0;0;8,839686394;26,62999916;53,60195541;18,36385918;73,84615326;0,071843587;
00:00:09.100;10,129426;0;0;8,838160515;26,62999916;51,01343155;18,36385918;73,84615326;0,071843587;
00:00:09.125;10,129426;0;0;8,836634636;26,62999916;48,13186646;18,36385918;73,84615326;0,071843587;
00:00:09.150;10,129426;0;0;8,835108757;26,62999916;48,30280685;18,36385918;73,84615326;0,071843587;
00:00:09.175;10,129426;0;0;8,832056999;26,62999916;47,57020569;18,36385918;73,84615326;0,071843587;
00:00:09.200;10,129426;0;0;8,832056999;26,62999916;47,30158615;18,36385918;73,84615326;0,071843587;
00:00:09.225;10,129426;0;0;8,832056999;26,62999916;46,42246628;18,36385918;73,84615326;0,071843587;
00:00:09.250;10,129426;0;0;8,832056999;26,62999916;45,76312637;18,36385918;73,84615326;0,071843587;
00:00:09.275;10,129426;0;0;8,832056999;26,62999916;45,07936478;18,36385918;73,84615326;0,071843587;
00:00:09.300;10,129426;0;0;8,832056999;26,62999916;44,46886444;18,36385918;73,84615326;0,122134104;
00:00:09.325;10,129426;0;0;8,83053112;26,62999916;44,59096527;18,36385918;73,84615326;0,122134104;
00:00:09.350;10,129426;0;0;8,83053112;26,62999916;43,80952454;18,36385918;73,84615326;0,122134104;
00:00:09.375;10,129426;0;0;8,83053112;26,62999916;43,90720367;18,36385918;73,84615326;0,122134104;
00:00:09.400;10,129426;0;0;8,83053112;26,62999916;44,85958481;18,36385918;73,84615326;0,093396664;
00:00:09.425;10,129426;0;0;8,829005241;26,62999916;45,34798431;18,36385918;73,84615326;0,093396664;
00:00:09.450;10,129426;0;0;8,829005241;26,62999916;45,68986511;18,36385918;73,84615326;0,093396664;
00:00:09.475;10,129426;0;0;8,829005241;26,62999916;46,39804459;18,36385918;73,84615326;0,093396664;
00:00:09.500;10,129426;0;0;8,829005241;26,62999916;45,54334641;18,36385918;73,84615326;0,093396664;
00:00:09.525;10,129426;0;0;8,829005241;26,62999916;45,44566727;18,36385918;73,84615326;0,129318461;
00:00:09.550;10,129426;0;0;8,83053112;26,62999916;44,59096527;18,36385918;73,84615326;0,129318461;
00:00:09.575;10,129426;0;0;8,83053112;26,62999916;44,5421257;18,36385918;73,84615326;0,129318461;
00:00:09.600;10,129426;0;0;8,83053112;26,62999916;44,05372238;18,36385918;73,84615326;0,129318461;
00:00:09.625;10,129426;0;0;8,83053112;26,62999916;44,17582321;18,36385918;73,84615326;0,129318461;
00:00:09.650;10,129426;0;0;8,829005241;26,63999939;45,56776428;18,63247871;74,6268692;0,093396664;
00:00:09.675;10,129426;0;0;8,829005241;26,63999939;49,25518799;18,63247871;74,6268692;0,093396664;
00:00:09.700;10,129426;0;0;8,827478409;26,63999939;55,38461685;18,63247871;74,6268692;0,093396664;
00:00:09.725;10,129426;0;0;8,827478409;26,63999939;59,26739883;18,63247871;74,6268692;0,093396664;
00:00:09.750;10,129426;0;0;8,827478409;26,63999939;61,6849823;18,63247871;74,6268692;0,093396664;
00:00:09.775;10,129426;0;0;8,82595253;26,63999939;61,53845978;18,63247871;74,6268692;0,093396664;
00:00:09.800;10,129426;0;0;8,82595253;26,63999939;60,8302803;18,63247871;74,6268692;0,079027951;
00:00:09.825;10,129426;0;0;8,822900772;26,63999939;57,4847374;18,63247871;74,6268692;0,079027951;
00:00:09.850;10,129426;0;0;8,822900772;26,63999939;54,99389648;18,63247871;74,6268692;0,079027951;
00:00:09.875;10,129426;0;0;8,822900772;26,64999962;52,42979431;18,63247871;73,34963226;0,05747487;
00:00:09.900;10,129426;0;0;8,821374893;26,64999962;49,91453171;18,63247871;73,34963226;0,05747487;
00:00:09.925;10,129426;0;0;8,821374893;26,64999962;49,32844925;18,63247871;73,34963226;0,05747487;
00:00:09.950;10,129426;0;0;8,819849014;26,64999962;48,86446762;18,63247871;73,34963226;0,05747487;
00:00:09.975;10,129426;0;0;8,821374893;26,64999962;48,84004974;18,63247871;73,34963226;0;
00:00:10.000;10,129426;0;0;8,821374893;26,64999962;48,27838898;18,63247871;73,34963226;0;
00:00:10.025;10,129426;0;0;8,821374893;26,65999985;47,15506744;19,90231895;72,37635803;0;
00:00:10.050;10,129426;0;0;8,821374893;26,65999985;46,0561676;19,90231895;72,37635803;0;
00:00:10.075;10,129426;0;0;8,821374893;26,65999985;44,83516312;19,90231895;72,37635803;0;
00:00:10.100;10,129426;0;0;8,821374893;26,68000031;44,22466278;19,90231895;72,37635803;0;
00:00:10.125;10,129426;0;0;8,819849014;26,68000031;43,34554291;19,90231895;72,37635803;0,05747487;
00:00:10.150;10,129426;0;0;8,819849014;26,68000031;43,17460251;19,90231895;72,37635803;0,05747487;
00:00:10.175;10,129426;0;0;8,819849014;26,68000031;42,27106094;19,41391945;71,89933777;0;
00:00:10.200;10,129426;0;0;8,818323135;26,68000031;42,95482254;19,41391945;71,89933777;0;
00:00:10.225;10,129426;0;0;8,818323135;26,68000031;43,12576294;19,41391945;71,89933777;0;
00:00:10.250;10,129426;0;0;8,816797256;26,68000031;43,10134125;19,41391945;71,89933777;0;
00:00:10.275;10,129426;0;0;8,816797256;26,68000031;43,83394241;19,41391945;71,89933777;0;
00:00:10.300;10,129426;0;0;8,816797256;26,68000031;43,05250168;19,41391945;71,89933777;0;
00:00:10.325;10,129426;0;0;8,816797256;26,68000031;43,90720367;19,41391945;71,89933777;0;
00:00:10.350;10,129426;0;0;8,816797256;26,68000031;43,73626328;19,41391945;71,89933777;0;
00:00:10.375;10,129426;0;0;8,816797256;26,68000031;43,83394241;19,41391945;71,89933777;0,05747487;
00:00:10.400;10,129426;0;0;8,816797256;26,68000031;43,58974457;19,41391945;71,89933777;0,05747487;
00:00:10.425;10,129426;0;0;8,818323135;26,68000031;43,90720367;19,41391945;71,89933777;0;
00:00:10.450;10,129426;0;0;8,818323135;26,68000031;44,07814407;19,41391945;71,89933777;0;
00:00:10.475;10,129426;0;0;8,818323135;26,68000031;44,22466278;19,41391945;71,89933777;0;
00:00:10.500;10,129426;0;0;8,818323135;26,68000031;45,81196594;19,41391945;71,89933777;0;
00:00:10.525;10,129426;0;0;8,818323135;26,68000031;49,08424759;19,41391945;71,89933777;0;
00:00:10.550;10,129426;0;0;8,818323135;26,68000031;55,09157562;19,41391945;71,89933777;0;
00:00:10.575;10,129426;0;0;8,818323135;26,68000031;59,51160049;19,41391945;71,89933777;0;
00:00:10.600;10,129426;0;0;8,818323135;26,68000031;62,07570267;19,41391945;71,89933777;0;
00:00:10.625;10,129426;0;0;8,819849014;26,68000031;62,49084091;19,41391945;71,89933777;0;
00:00:10.650;10,129426;0;0;8,819849014;26,68000031;61,70940018;19,41391945;71,89933777;0;
00:00:10.675;10,129426;0;0;8,819849014;26,68000031;60,19536209;19,41391945;71,89933777;0;
00:00:10.700;10,129426;0;0;8,818323135;26,68000031;58,77899933;19,41391945;71,89933777;0;
00:00:10.725;10,129426;0;0;8,818323135;26,68000031;57,77777863;19,41391945;71,89933777;0;
00:00:10.750;10,129426;0;0;8,818323135;26,68000031;54,74969482;19,41391945;71,89933777;0;
00:00:10.775;10,129426;0;0;8,818323135;26,68000031;52,25885391;19,41391945;71,89933777;0;
00:00:10.800;10,129426;0;0;8,816797256;26,68000031;50,52503204;19,41391945;71,89933777;0;
00:00:10.825;10,129426;0;0;8,815271378;26,68000031;49,89011002;19,41391945;71,89933777;0;
00:00:10.850;10,129426;0;0;8,815271378;26,68000031;50,01221085;19,41391945;71,89933777;0;
00:00:10.875;10,129426;0;0;8,815271378;26,68000031;49,89011002;19,41391945;71,89933777;0;
00:00:10.900;10,129426;0;0;8,813745499;26,68000031;49,76800919;19,41391945;71,89933777;0;
00:00:10.925;10,129426;0;0;8,813745499;26,68000031;47,98534775;19,41391945;71,89933777;0;
00:00:10.950;10,129426;0;0;8,813745499;26,68000031;47,37484741;19,41391945;71,89933777;0;
00:00:10.975;10,129426;0;0;8,815271378;26,68000031;46,25152588;19,41391945;71,89933777;0;
00:00:11.000;10,129426;0;0;8,815271378;26,68000031;45,54334641;19,41391945;71,89933777;0;
00:00:11.025;10,129426;0;0;8,815271378;26,68000031;44,98168564;19,41391945;71,89933777;0;
00:00:11.050;10,129426;0;0;8,815271378;26,68000031;44,93284607;19,41391945;71,89933777;0;
00:00:11.075;10,129426;0;0;8,815271378;26,68000031;45,03052521;19,41391945;71,89933777;0;
00:00:11.100;10,129426;0;0;8,815271378;26,68000031;44,51770401;19,41391945;71,89933777;0;
00:00:11.125;10,129426;0;0;8,815271378;26,68000031;44,78632355;19,41391945;71,89933777;0;
00:00:11.150;10,129426;0;0;8,813745499;26,68000031;44,42002487;19,41391945;71,89933777;0;
00:00:11.175;10,129426;0;0;8,81221962;26,68000031;44,90842438;19,41391945;71,89933777;0;
00:00:11.200;10,129426;0;0;8,810693741;26,68000031;44,59096527;19,41391945;71,89933777;0;
00:00:11.225;10,129426;0;0;8,809167862;26,68000031;44,78632355;19,41391945;71,89933777;0;
00:00:11.250;10,129426;0;0;8,807641983;26,68000031;44,93284607;19,41391945;71,89933777;0;
00:00:11.275;10,129426;0;0;8,807641983;26,68000031;44,7130661;19,41391945;71,89933777;0;
00:00:11.300;10,129426;0;0;8,807641983;26,68000031;45,17704391;19,41391945;71,89933777;0;
00:00:11.325;10,129426;0;0;8,806116104;26,68000031;44,90842438;19,41391945;71,89933777;0;
00:00:11.350;10,129426;0;0;8,806116104;26,68000031;45,03052521;19,41391945;71,89933777;0;
00:00:11.375;10,129426;0;0;8,806116104;26,68000031;44,39560318;19,41391945;71,89933777;0;
00:00:11.400;10,129426;0;0;8,807641983;26,68000031;46,20268631;19,41391945;71,89933777;0;
00:00:11.425;10,129426;0;0;8,807641983;26,68000031;50,72039032;19,41391945;71,89933777;0;
00:00:11.450;10,129426;0;0;8,807641983;26,68000031;56,53235626;19,41391945;71,89933777;0;
00:00:11.475;10,129426;0;0;8,806116104;26,68000031;60,36629868;19,41391945;71,89933777;0;
00:00:11.500;10,129426;0;0;8,806116104;26,68000031;62,29548264;19,41391945;71,89933777;0;
00:00:11.525;10,129426;0;0;8,803064346;26,68000031;62,97924423;19,41391945;71,89933777;0;
00:00:11.550;10,129426;0;0;8,800012589;26,68000031;61,19658279;19,41391945;71,89933777;0;
00:00:11.575;10,129426;0;0;8,79848671;26,68000031;60,5128212;19,41391945;71,89933777;0;
00:00:11.600;10,129426;0;0;8,795433998;26,68000031;58,85226059;19,41391945;71,89933777;0;
00:00:11.625;10,129426;0;0;8,795433998;26,68000031;57,43589783;19,41391945;71,89933777;0;
00:00:11.650;10,129426;0;0;8,793908119;26,68000031;54,55433273;19,41391945;71,89933777;0;
00:00:11.675;10,129426;0;0;8,79238224;26,68000031;51,89255142;19,41391945;71,89933777;0;
00:00:11.700;10,129426;0;0;8,79238224;26,68000031;50,40293121;19,41391945;71,89933777;0;
00:00:11.725;10,129426;0;0;8,79238224;26,68000031;49,25518799;19,41391945;71,89933777;0;
00:00:11.750;10,129426;0;0;8,79238224;26,68000031;49,52381134;19,41391945;71,89933777;0;
00:00:11.775;10,129426;0;0;8,793908119;26,68000031;48,64468765;19,41391945;71,89933777;0;
00:00:11.800;10,129426;0;0;8,793908119;26,68000031;47,52136612;19,41391945;71,89933777;0;
00:00:11.825;10,129426;0;0;8,793908119;26,68000031;46,47130585;19,41391945;71,89933777;0;
00:00:11.850;10,129426;0;0;8,79238224;26,68000031;45,32356644;19,41391945;71,89933777;0;
00:00:11.875;10,129426;0;0;8,79238224;26,68000031;44,78632355;19,41391945;71,89933777;0;
00:00:11.900;10,129426;0;0;8,79238224;26,68000031;43,93162537;19,41391945;71,89933777;0;
00:00:11.925;10,129426;0;0;8,790856361;26,68000031;43,56532288;19,41391945;71,89933777;0;
00:00:11.950;10,129426;0;0;8,790856361;26,68000031;42,5152626;19,41391945;71,89933777;0;
00:00:11.975;10,129426;0;0;8,790856361;26,68000031;42,88156128;19,41391945;71,89933777;0;
00:00:12.000;10,129426;0;0;8,789330482;26,68000031;42,71062088;19,41391945;71,89933777;0;
00:00:12.025;10,129426;0;0;8,787804604;26,68000031;42,83272171;19,41391945;71,89933777;0;
00:00:12.050;10,129426;0;0;8,787804604;26,68000031;42,78388214;19,41391945;71,89933777;0;
00:00:12.075;10,129426;0;0;8,786278725;26,68000031;43,00366211;19,41391945;71,89933777;0;
00:00:12.100;10,129426;0;0;8,786278725;26,68000031;42,61294174;19,41391945;71,89933777;0;
00:00:12.125;10,129426;0;0;8,786278725;26,68000031;42,97924423;19,41391945;71,89933777;0;
00:00:12.150;10,129426;0;0;8,786278725;26,68000031;43,34554291;19,41391945;71,89933777;0;
00:00:12.175;10,129426;0;0;8,784752846;26,68000031;42,58852386;19,41391945;71,89933777;0;
00:00:12.200;10,129426;0;0;8,783226967;26,68000031;43,10134125;19,41391945;71,89933777;0;
00:00:12.225;10,129426;0;0;8,783226967;26,68000031;42,71062088;19,41391945;71,89933777;0;
00:00:12.250;10,129426;0;0;8,781701088;26,68000031;42,95482254;19,41391945;71,89933777;0;
00:00:12.275;10,129426;0;0;8,781701088;26,68000031;43,22344208;19,41391945;71,89933777;0;
00:00:12.300;10,129426;0;0;8,781701088;26,68000031;44,95726395;19,41391945;71,89933777;0;
00:00:12.325;10,129426;0;0;8,781701088;26,68000031;49,49938965;19,41391945;71,89933777;0;
00:00:12.350;10,129426;0;0;8,781701088;26,68000031;55,21367645;19,41391945;71,89933777;0;
00:00:12.375;10,129426;0;0;8,780175209;26,68000031;59,80463791;19,41391945;71,89933777;0;
00:00:12.400;10,129426;0;0;8,780175209;26,68000031;61,53845978;19,41391945;71,89933777;0;
00:00:12.425;10,129426;0;0;8,77864933;26,68000031;62,07570267;19,41391945;71,89933777;0;
00:00:12.450;10,129426;0;0;8,772545815;26,68000031;48,62026978;19,41391945;71,89933777;0;
00:00:12.475;10,129426;0;0;8,771019936;26,68000031;47,83882904;19,41391945;71,89933777;0;
00:00:12.500;10,129426;0;0;8,771019936;26,68000031;47,13064575;19,41391945;71,89933777;0;
00:00:12.525;10,129426;0;0;8,769494057;26,68000031;45,49450684;19,41391945;71,89933777;0;
00:00:12.550;10,129426;0;0;8,769494057;26,68000031;43,49206161;19,41391945;71,89933777;0;
00:00:12.575;10,129426;0;0;8,767968178;26,68000031;43,63858414;19,41391945;71,89933777;0;
00:00:12.600;10,129426;0;0;8,767968178;26,68000031;42,80830383;19,41391945;71,89933777;0;
00:00:12.625;10,129426;0;0;8,766442299;26,68000031;42,5396843;20,02441978;71,34363556;0;
00:00:12.650;10,129426;0;0;8,766442299;26,69000053;42,61294174;20,02441978;71,34363556;0,05747487;
00:00:12.675;10,129426;0;0;8,766442299;26,69000053;43,00366211;20,02441978;71,34363556;0,05747487;
00:00:12.700;10,129426;0;0;8,764915466;26,69000053;43,10134125;20,02441978;71,34363556;0;
00:00:12.725;10,129426;0;0;8,764915466;26,69000053;43,1990242;20,02441978;71,34363556;0;
00:00:12.750;10,129426;0;0;8,764915466;26,69000053;43,58974457;20,02441978;71,34363556;0;
00:00:12.775;10,129426;0;0;8,764915466;26,69000053;42,686203;20,92796135;71,04795837;0;
00:00:12.800;10,129426;0;0;8,764915466;26,70000076;43,32112503;20,92796135;71,04795837;0;
00:00:12.825;10,129426;0;0;8,763389587;26,70000076;43,32112503;20,92796135;71,04795837;0;
00:00:12.850;10,129426;0;0;8,763389587;26,70000076;43,3699646;20,92796135;71,04795837;0;
00:00:12.875;10,129426;0;0;8,763389587;26,70999908;43,7118454;20,92796135;71,04795837;0;
00:00:12.900;10,129426;0;0;8,763389587;26,70999908;43,68742371;20,92796135;71,04795837;0;
00:00:12.925;10,129426;0;0;8,763389587;26,70999908;44,27350616;19,92674065;70,92198944;0;
00:00:12.950;10,129426;0;0;8,763389587;26,70999908;44,32234573;19,92674065;70,92198944;0;
00:00:12.975;10,129426;0;0;8,763389587;26,70999908;47,08180618;19,92674065;70,92198944;0;
00:00:13.000;10,129426;0;0;8,763389587;26,70999908;52,16117096;19,92674065;70,92198944;0;
00:00:13.025;10,129426;0;0;8,763389587;26,70999908;58,51037979;19,92674065;70,92198944;0;
00:00:13.050;10,129426;0;0;8,763389587;26,70999908;62,3687439;19,92674065;70,92198944;0;
00:00:13.075;10,129426;0;0;8,763389587;26,70999908;63,83394241;19,92674065;70,92198944;0;
00:00:13.100;10,129426;0;0;8,764915466;26,70999908;63,61416245;19,92674065;70,92198944;0;
00:00:13.125;10,129426;0;0;8,764915466;26,70999908;62,58852386;19,92674065;70,92198944;0;
00:00:13.150;10,129426;0;0;8,763389587;26,70999908;61,61172104;19,92674065;70,92198944;0,079027951;
00:00:13.175;10,129426;0;0;8,761863708;26,70999908;60;19,92674065;70,92198944;0,079027951;
00:00:13.200;10,129426;0;0;8,76033783;26,70999908;58,68132019;19,92674065;70,92198944;0,093396664;
00:00:13.225;10,129426;0;0;8,758811951;26,70999908;55,33577347;19,92674065;70,92198944;0,093396664;
00:00:13.250;10,129426;0;0;8,758811951;26,70999908;52,84493256;19,92674065;70,92198944;0,093396664;
00:00:13.275;10,129426;0;0;8,755760193;26,70999908;51,13553238;19,92674065;70,92198944;0,093396664;
00:00:13.300;10,129426;0;0;8,754234314;26,70999908;50,23199081;19,92674065;70,92198944;0,093396664;
00:00:13.325;10,129426;0;0;8,752708435;26,70999908;50,01221085;19,92674065;70,92198944;0,093396664;
00:00:13.350;10,129426;0;0;8,752708435;26,70999908;49,81684875;19,92674065;70,92198944;0,093396664;
00:00:13.375;10,129426;0;0;8,751182556;26,70999908;49,52381134;19,92674065;70,92198944;0,093396664;
00:00:13.400;10,129426;0;0;8,751182556;26,70999908;48,00976944;19,92674065;70,92198944;0,093396664;
00:00:13.425;10,129426;0;0;8,751182556;26,70999908;47,49694824;19,92674065;70,92198944;0,093396664;
00:00:13.450;10,129426;0;0;8,751182556;26,70999908;46,25152588;19,92674065;70,92198944;0,093396664;
00:00:13.475;10,129426;0;0;8,749656677;26,70999908;45,51892471;19,92674065;70,92198944;0,093396664;
00:00:13.500;10,129426;0;0;8,749656677;26,70999908;45,15262604;19,92674065;70,92198944;0,093396664;
00:00:13.525;10,129426;0;0;8,749656677;26,70999908;44,76190567;19,92674065;70,92198944;0,093396664;
00:00:13.550;10,129426;0;0;8,748130798;26,70999908;44,68864441;19,92674065;70,92198944;0,093396664;
00:00:13.575;10,129426;0;0;8,748130798;26,70999908;44,07814407;19,92674065;70,92198944;0,093396664;
00:00:13.600;10,129426;0;0;8,748130798;26,70999908;45,03052521;19,92674065;70,92198944;0,093396664;
00:00:13.625;10,129426;0;0;8,746604919;26,70999908;44,5421257;19,92674065;70,92198944;0,093396664;
00:00:13.650;10,129426;0;0;8,746604919;26,70999908;44,8840065;19,92674065;70,92198944;0,093396664;
00:00:13.675;10,129426;0;0;8,745079041;26,70999908;44,27350616;19,92674065;70,92198944;0,093396664;
00:00:13.700;10,129426;0;0;8,745079041;26,70999908;44,17582321;19,92674065;70,92198944;0,093396664;
00:00:13.725;10,129426;0;0;8,745079041;26,70999908;44,51770401;19,92674065;70,92198944;0,093396664;
00:00:13.750;10,129426;0;0;8,745079041;26,70999908;44,76190567;19,92674065;70,92198944;0,093396664;
00:00:13.775;10,129426;0;0;8,745079041;26,70999908;45,42124557;19,92674065;70,92198944;0,093396664;
00:00:13.800;10,129426;0;0;8,745079041;26,70999908;44,61538315;19,92674065;70,92198944;0,093396664;
00:00:13.825;10,129426;0;0;8,746604919;26,70999908;44,78632355;19,92674065;70,92198944;0,093396664;
00:00:13.850;10,129426;0;0;8,746604919;26,70999908;44,05372238;19,92674065;70,92198944;0,093396664;
00:00:13.875;10,129426;0;0;8,745079041;26,70999908;44,5421257;19,92674065;70,92198944;0,093396664;
00:00:13.900;10,129426;0;0;8,746604919;26,70999908;46,54456711;19,92674065;70,92198944;0,093396664;
00:00:13.925;10,129426;0;0;8,746604919;26,70999908;51,28205109;19,92674065;70,92198944;0,093396664;
00:00:13.950;10,129426;0;0;8,746604919;26,70999908;56,94749832;19,92674065;70,92198944;0,093396664;
00:00:13.975;10,129426;0;0;8,746604919;26,70999908;60,21977997;19,92674065;70,92198944;0,093396664;
00:00:14.000;10,129426;0;0;8,746604919;26,70999908;62,14896393;19,92674065;70,92198944;0,093396664;
00:00:14.025;10,129426;0;0;8,745079041;26,70999908;60,80586243;19,92674065;70,92198944;0,093396664;
00:00:14.050;10,129426;0;0;8,743553162;26,70999908;60,39072037;19,92674065;70,92198944;0,093396664;
00:00:14.075;10,129426;0;0;8,742027283;26,70999908;59,09645844;19,92674065;70,92198944;0,093396664;
00:00:14.100;10,129426;0;0;8,742027283;26,70999908;58,43711853;19,92674065;70,92198944;0,093396664;
00:00:14.125;10,129426;0;0;8,742027283;26,70999908;56,89865875;19,92674065;70,92198944;0,093396664;
00:00:14.150;10,129426;0;0;8,740501404;26,70999908;54,38339615;19,92674065;70,92198944;0,093396664;
00:00:14.175;10,129426;0;0;8,740501404;26,70999908;52,52747345;19,92674065;70,92198944;0,093396664;
00:00:14.200;10,129426;0;0;8,740501404;26,70999908;50,42734909;19,92674065;70,92198944;0,093396664;
00:00:14.225;10,129426;0;0;8,742027283;26,70999908;50,62271118;19,92674065;70,92198944;0,093396664;
00:00:14.250;10,129426;0;0;8,742027283;26,70999908;49,71916962;19,92674065;70,92198944;0,093396664;
00:00:14.275;10,129426;0;0;8,742027283;26,70999908;49,42612839;19,92674065;70,92198944;0,093396664;
00:00:14.300;10,129426;0;0;8,742027283;26,70999908;48,62026978;19,92674065;70,92198944;0,093396664;
00:00:14.325;10,129426;0;0;8,742027283;26,70999908;47,52136612;19,92674065;70,92198944;0,093396664;
00:00:14.350;10,129426;0;0;8,742027283;26,70999908;46,44688797;19,92674065;70,92198944;0,093396664;
00:00:14.375;10,129426;0;0;8,742027283;26,70999908;45,42124557;19,92674065;70,92198944;0,093396664;
00:00:14.400;10,129426;0;0;8,742027283;26,70999908;45,12820435;19,92674065;70,92198944;0,093396664;
00:00:14.425;10,129426;0;0;8,742027283;26,70999908;43,78510284;19,92674065;70,92198944;0,093396664;
00:00:14.450;10,129426;0;0;8,742027283;26,70999908;44,3711853;19,92674065;70,92198944;0,093396664;
00:00:14.475;10,129426;0;0;8,742027283;26,70999908;43,73626328;19,92674065;70,92198944;0,093396664;
00:00:14.500;10,129426;0;0;8,742027283;26,70999908;44,0293045;19,92674065;70,92198944;0,093396664;
00:00:14.525;10,129426;0;0;8,742027283;26,70999908;44,24908447;19,92674065;70,92198944;0,093396664;
00:00:14.550;10,129426;0;0;8,742027283;26,70999908;44,29792404;19,92674065;70,92198944;0,093396664;
00:00:14.575;10,129426;0;0;8,742027283;26,70999908;44,24908447;19,92674065;70,92198944;0,093396664;
00:00:14.600;10,129426;0;0;8,742027283;26,70999908;42,56410217;19,92674065;70,92198944;0,093396664;
00:00:14.625;10,129426;0;0;8,743553162;26,70999908;42,44200134;19,92674065;70,92198944;0,093396664;
00:00:14.650;10,129426;0;0;8,743553162;26,70999908;42,1978035;19,92674065;70,92198944;0,093396664;
00:00:14.675;10,129426;0;0;8,743553162;26,70999908;43,56532288;19,92674065;70,92198944;0,093396664;
00:00:14.700;10,129426;0;0;8,745079041;26,70999908;44,51770401;19,92674065;70,92198944;0,093396664;
00:00:14.725;10,129426;0;0;8,746604919;26,70999908;45,29914474;19,92674065;70,92198944;0,093396664;
00:00:14.750;10,129426;0;0;8,746604919;26,70999908;45,93406677;19,92674065;70,92198944;0,093396664;
00:00:14.775;10,129426;0;0;8,749656677;26,70999908;46,17826462;19,92674065;70,92198944;0,093396664;
00:00:14.800;10,129426;0;0;8,751182556;26,70999908;46,81318665;19,92674065;70,92198944;0,093396664;
00:00:14.825;10,129426;0;0;8,751182556;26,70999908;48,13186646;19,92674065;70,92198944;0,093396664;
00:00:14.850;10,129426;0;0;8,751182556;26,70999908;53,01587296;19,92674065;70,92198944;0,093396664;
00:00:14.875;10,129426;0;0;8,752708435;26,70999908;57,77777863;19,92674065;70,92198944;0,093396664;
00:00:14.900;10,129426;0;0;8,752708435;26,70999908;61,95360184;19,92674065;70,92198944;0,093396664;
00:00:14.925;10,129426;0;0;8,754234314;26,70999908;63,15018463;19,92674065;70,92198944;0,093396664;
00:00:14.950;10,129426;0;0;8,752708435;26,70999908;63,12576294;19,92674065;70,92198944;0,093396664;
00:00:14.975;10,129426;0;0;8,751182556;26,70999908;62,27106094;19,92674065;70,92198944;0,093396664;
00:00:15.000;10,129426;0;0;8,751182556;26,70999908;60,80586243;19,92674065;70,92198944;0,093396664;
00:00:15.025;10,129426;0;0;8,751182556;26,70999908;59,97557831;19,92674065;70,92198944;0,093396664;
00:00:15.050;10,129426;0;0;8,751182556;26,70999908;57,19169617;19,92674065;70,92198944;0,093396664;
00:00:15.075;10,129426;0;0;8,749656677;26,70999908;55,06715393;19,92674065;70,92198944;0,093396664;
00:00:15.100;10,129426;0;0;8,748130798;26,70999908;51,45299149;19,92674065;70,92198944;0,093396664;
00:00:15.125;10,129426;0;0;8,748130798;26,70999908;49,42612839;19,92674065;70,92198944;0,093396664;
00:00:15.150;10,129426;0;0;8,743553162;26,71999931;41,70940018;19,92674065;70,92198944;0,093396664;
00:00:15.175;10,129426;0;0;8,745079041;26,71999931;44,05372238;19,92674065;70,92198944;0,093396664;
00:00:15.200;10,129426;0;0;8,745079041;26,71999931;45,93406677;19,92674065;70,92198944;0,107765384;
00:00:15.225;10,129426;0;0;8,745079041;26,71999931;46,32478714;19,92674065;70,92198944;0,107765384;
00:00:15.250;10,129426;0;0;8,745079041;26,71999931;46,56898499;19,92674065;70,92198944;0,107765384;
00:00:15.275;10,129426;0;0;8,745079041;26,71999931;45,8852272;19,92674065;70,92198944;0,129318461;
00:00:15.300;10,129426;0;0;8,746604919;26,71999931;44,98168564;19,92674065;70,92198944;0,129318461;
00:00:15.325;10,129426;0;0;8,746604919;26,71999931;44,15140533;19,92674065;70,92198944;0,129318461;
00:00:15.350;10,129426;0;0;8,746604919;26,71999931;44,10256577;19,92674065;70,92198944;0,129318461;
00:00:15.375;10,129426;0;0;8,748130798;26,71999931;44,34676361;19,92674065;70,92198944;0,129318461;
00:00:15.400;10,129426;0;0;8,748130798;26,71999931;43,51648331;19,92674065;70,92198944;0,129318461;
00:00:15.425;10,129426;0;0;8,748130798;26,71999931;42,49084091;19,92674065;70,92198944;0,129318461;
00:00:15.450;10,129426;0;0;8,748130798;26,71999931;41,41636276;19,92674065;70,92198944;0,129318461;
00:00:15.475;10,129426;0;0;8,749656677;26,71999931;40,8302803;19,92674065;70,92198944;0,129318461;
00:00:15.500;10,129426;0;0;8,751182556;26,71999931;41,8559227;19,92674065;70,92198944;0,129318461;
00:00:15.525;10,129426;0;0;8,752708435;26,71999931;47,27716827;19,92674065;70,92198944;0,143687174;
00:00:15.550;10,129426;0;0;8,752708435;26,71999931;53,65079498;19,92674065;70,92198944;0,143687174;
00:00:15.575;10,129426;0;0;8,752708435;26,71999931;59,145298;19,92674065;70,92198944;0,143687174;
00:00:15.600;10,129426;0;0;8,754234314;26,71999931;60,61050034;19,92674065;70,92198944;0,143687174;
00:00:15.625;10,129426;0;0;8,752708435;26,71999931;61,24542236;19,92674065;70,92198944;0,129318461;
00:00:15.650;10,129426;0;0;8,752708435;26,71999931;60,43955994;21,31868172;69,84866333;0,129318461;
00:00:15.675;10,129426;0;0;8,751182556;26,71999931;59,41391754;21,31868172;69,84866333;0,129318461;
00:00:15.700;10,129426;0;0;8,748130798;26,71999931;58,9743576;21,31868172;69,84866333;0,129318461;
00:00:15.725;10,129426;0;0;8,748130798;26,71999931;57,24053574;21,31868172;69,84866333;0,107765384;
00:00:15.750;10,129426;0;0;8,746604919;26,71999931;53,87057495;21,31868172;69,84866333;0,107765384;
00:00:15.775;10,129426;0;0;8,746604919;26,71999931;51,57509232;21,31868172;69,84866333;0,107765384;
00:00:15.800;10,129426;0;0;8,746604919;26,71999931;49,91453171;21,31868172;69,84866333;0,107765384;
00:00:15.825;10,129426;0;0;8,746604919;26,71999931;49,69474792;21,31868172;69,84866333;0,107765384;
00:00:15.850;10,129426;0;0;8,745079041;26,71999931;49,35287094;21,31868172;69,84866333;0,107765384;
00:00:15.875;10,129426;0;0;8,745079041;26,71999931;48,81562805;21,31868172;69,84866333;0,107765384;
00:00:15.900;10,129426;0;0;8,745079041;26,71999931;48,35165024;21,31868172;69,84866333;0,071843587;
00:00:15.925;10,129426;0;0;8,746604919;26,71999931;47,37484741;21,31868172;69,84866333;0,071843587;
00:00:15.950;10,129426;0;0;8,746604919;26,71999931;46,81318665;21,31868172;69,84866333;0,071843587;
00:00:15.975;10,129426;0;0;8,746604919;26,71999931;45,34798431;21,31868172;69,84866333;0,071843587;
00:00:16.000;10,129426;0;0;8,746604919;26,71999931;45,17704391;21,31868172;69,84866333;0,071843587;
00:00:16.025;10,129426;0;0;8,746604919;26,71999931;45,49450684;21,31868172;69,84866333;0,093396664;
00:00:16.050;10,129426;0;0;8,746604919;26,71999931;44,85958481;21,31868172;69,84866333;0,093396664;
00:00:16.075;10,129426;0;0;8,746604919;26,71999931;44,85958481;21,31868172;69,84866333;0,093396664;
00:00:16.100;10,129426;0;0;8,746604919;26,71999931;45,37240601;21,31868172;69,84866333;0,093396664;
00:00:16.125;10,129426;0;0;8,746604919;26,71999931;45,00610352;21,31868172;69,84866333;0,093396664;
00:00:16.150;10,129426;0;0;8,746604919;26,72999954;44,83516312;21,31868172;69,84866333;0,093396664;
00:00:16.175;10,129426;0;0;8,746604919;26,72999954;43,61416245;21,31868172;69,84866333;0,093396664;
00:00:16.200;10,129426;0;0;8,746604919;26,72999954;43,78510284;21,31868172;69,84866333;0,093396664;
00:00:16.225;10,129426;0;0;8,746604919;26,72999954;43,49206161;21,31868172;69,84866333;0,093396664;
00:00:16.250;10,129426;0;0;8,746604919;26,72999954;43,85836411;21,31868172;69,84866333;0,093396664;
00:00:16.275;10,129426;0;0;8,745079041;26,72999954;43,63858414;21,31868172;69,84866333;0,093396664;
00:00:16.300;10,129426;0;0;8,745079041;26,72999954;43,90720367;21,31868172;69,84866333;0,093396664;
00:00:16.325;10,129426;0;0;8,745079041;26,72999954;43,88278198;21,31868172;69,84866333;0,107765384;
00:00:16.350;10,129426;0;0;8,745079041;26,72999954;45,12820435;21,31868172;69,84866333;0,107765384;
00:00:16.375;10,129426;0;0;8,746604919;26,72999954;47,32600784;21,31868172;69,84866333;0,107765384;
00:00:16.400;10,129426;0;0;8,746604919;26,72999954;53,72405243;21,31868172;69,84866333;0,107765384;
00:00:16.425;10,129426;0;0;8,748130798;26,72999954;58,77899933;21,31868172;69,84866333;0,071843587;
00:00:16.450;10,129426;0;0;8,748130798;26,72999954;61,75824356;21,31868172;69,84866333;0,071843587;
00:00:16.475;10,129426;0;0;8,749656677;26,72999954;62,75946426;21,31868172;69,32408905;0,071843587;
00:00:16.500;10,129426;0;0;8,749656677;26,72999954;61,70940018;21,31868172;69,32408905;0,071843587;
00:00:16.525;10,129426;0;0;8,749656677;26,72999954;61,12332153;21,0012207;69,32408905;0,071843587;
00:00:16.550;10,129426;0;0;8,749656677;26,72999954;58,63247681;21,0012207;69,32408905;0,05747487;
00:00:16.575;10,129426;0;0;8,749656677;26,72999954;56,09279633;21,0012207;69,32408905;0,05747487;
00:00:16.600;10,129426;0;0;8,748130798;26,72999954;53,60195541;21,0012207;69,32408905;0,05747487;
00:00:16.625;10,129426;0;0;8,748130798;26,72999954;49,91453171;21,0012207;69,32408905;0,05747487;
00:00:16.650;10,129426;0;0;8,749656677;26,72999954;49,93894958;21,0012207;69,32408905;0,05747487;
00:00:16.675;10,129426;0;0;8,749656677;26,72999954;49,84127045;21,0012207;69,32408905;0,05747487;
00:00:16.700;10,129426;0;0;8,749656677;26,72999954;49,96337128;21,0012207;69,32408905;0,05747487;
00:00:16.725;10,129426;0;0;8,749656677;26,72999954;48,71794891;21,0012207;69,32408905;0,05747487;
00:00:16.750;10,129426;0;0;8,751182556;26,73999977;48,10744858;21,0012207;69,32408905;0;
00:00:16.775;10,129426;0;0;8,751182556;26,73999977;46,227108;21,0012207;69,32408905;0;
00:00:16.800;10,129426;0;0;8,751182556;26,73999977;45,22588348;21,0012207;69,32408905;0;
00:00:16.825;10,129426;0;0;8,751182556;26,73999977;44,78632355;21,0012207;69,32408905;0;
00:00:16.850;10,129426;0;0;8,751182556;26,73999977;44,49328613;21,0012207;69,32408905;0;
00:00:16.875;10,129426;0;0;8,751182556;26,73999977;44,61538315;21,0012207;69,32408905;0;
00:00:16.900;10,129426;0;0;8,751182556;26,73999977;43,85836411;21,0012207;69,32408905;0;
00:00:16.925;10,129426;0;0;8,751182556;26,73999977;44,34676361;21,0012207;69,32408905;0;
00:00:16.950;10,129426;0;0;8,749656677;26,73999977;43,540905;21,0012207;69,32408905;0;
00:00:16.975;10,129426;0;0;8,749656677;26,73999977;44,05372238;21,0012207;69,32408905;0;
00:00:17.000;10,129426;0;0;8,749656677;26,73999977;44,29792404;21,0012207;69,32408905;0;
00:00:17.025;10,129426;0;0;8,749656677;26,73999977;44,3711853;21,0012207;69,32408905;0;
00:00:17.050;10,129426;0;0;8,749656677;26,73999977;44,59096527;21,0012207;69,32408905;0;
00:00:17.075;10,129426;0;0;8,748130798;26,73999977;45,29914474;21,0012207;69,32408905;0;
00:00:17.100;10,129426;0;0;8,748130798;26,73999977;44,56654358;21,0012207;69,32408905;0;
00:00:17.125;10,129426;0;0;8,748130798;26,73999977;45,34798431;21,0012207;69,32408905;0;
00:00:17.150;10,129426;0;0;8,748130798;26,73999977;45,0549469;21,0012207;69,32408905;0,079027951;
00:00:17.175;10,129426;0;0;8,748130798;26,73999977;46,54456711;21,0012207;69,32408905;0,079027951;
00:00:17.200;10,129426;0;0;8,748130798;26,73999977;49,62149048;21,0012207;69,32408905;0,079027951;
00:00:17.225;10,129426;0;0;8,748130798;26,73999977;54,70085526;21,0012207;69,32408905;0,079027951;
00:00:17.250;10,129426;0;0;8,749656677;26,73999977;62,39316177;21,0012207;69,32408905;0,079027951;
00:00:17.275;10,129426;0;0;8,749656677;26,73999977;63,83394241;21,0012207;69,32408905;0,071843587;
00:00:17.300;10,129426;0;0;8,752708435;26,73999977;62,8571434;21,0012207;69,32408905;0,071843587;
00:00:17.325;10,129426;0;0;8,752708435;26,73999977;62,5396843;21,0012207;69,32408905;0,071843587;
00:00:17.350;10,129426;0;0;8,752708435;26,73999977;61,46520233;20,04883957;70,05253601;0,071843587;
00:00:17.375;10,129426;0;0;8,752708435;26,73999977;60,97680283;20,04883957;70,05253601;0,071843587;
00:00:17.400;10,129426;0;0;8,752708435;26,73999977;58,80341721;20,04883957;70,05253601;0,071843587;
00:00:17.425;10,129426;0;0;8,751182556;26,73999977;55,84859467;20,04883957;70,05253601;0,071843587;
00:00:17.450;10,129426;0;0;8,749656677;26,73999977;54,04151535;20,04883957;70,05253601;0,071843587;
00:00:17.475;10,129426;0;0;8,748130798;26,73999977;52,57631302;20,04883957;70,05253601;0,071843587;
00:00:17.500;10,129426;0;0;8,745079041;26,73999977;51,79487228;20,04883957;70,05253601;0,071843587;
00:00:17.525;10,129426;0;0;8,746604919;26,73999977;51,01343155;20,04883957;70,05253601;0,071843587;
00:00:17.550;10,129426;0;0;8,746604919;26,73999977;49,54822922;20,04883957;70,05253601;0,071843587;
00:00:17.575;10,129426;0;0;8,745079041;26,73999977;48,54700851;20,04883957;70,05253601;0;
00:00:17.600;10,129426;0;0;8,745079041;26,73999977;47,08180618;20,04883957;70,05253601;0;
00:00:17.625;10,129426;0;0;8,745079041;26,73999977;45,68986511;20,04883957;70,05253601;0;
00:00:17.650;10,129426;0;0;8,743553162;26,73999977;44,46886444;20,04883957;70,05253601;0;
00:00:17.675;10,129426;0;0;8,743553162;26,73999977;42,17338181;20,04883957;70,05253601;0,079027951;
00:00:17.700;10,129426;0;0;8,743553162;26,73999977;40,6593399;20,04883957;70,05253601;0,079027951;
00:00:17.725;10,129426;0;0;8,743553162;26,73999977;40,78144073;20,04883957;70,05253601;0,079027951;
00:00:17.750;10,129426;0;0;8,743553162;26,73999977;40,73260117;20,04883957;70,05253601;0,079027951;
00:00:17.775;10,129426;0;0;8,743553162;26,73999977;40,41514206;20,04883957;70,05253601;0,079027951;
00:00:17.800;10,129426;0;0;8,743553162;26,73999977;40,70817947;20,04883957;70,05253601;0,079027951;
00:00:17.825;10,129426;0;0;8,743553162;26,73999977;40,70817947;20,04883957;70,05253601;0,079027951;
00:00:17.850;10,129426;0;0;8,743553162;26,73999977;41,3431015;20,04883957;70,05253601;0,079027951;
00:00:17.875;10,129426;0;0;8,743553162;26,73999977;41,24542236;20,04883957;70,05253601;0,079027951;
00:00:17.900;10,129426;0;0;8,743553162;26,73999977;40,854702;20,04883957;70,05253601;0,079027951;
00:00:17.925;10,129426;0;0;8,742027283;26,73999977;40,854702;20,04883957;70,05253601;0,079027951;
00:00:17.950;10,129426;0;0;8,742027283;26,73999977;41,0256424;20,04883957;70,05253601;0,079027951;
00:00:17.975;10,129426;0;0;8,742027283;26,73999977;41,58730316;20,04883957;70,05253601;0,071843587;
00:00:18.000;10,129426;0;0;8,742027283;26,73999977;51,01343155;20,04883957;70,05253601;0,071843587;
00:00:18.025;10,129426;0;0;8,742027283;26,73999977;56,19047546;20,04883957;70,05253601;0,071843587;
00:00:18.050;10,129426;0;0;8,742027283;26,73999977;60,31745911;20,04883957;70,05253601;0,071843587;
00:00:18.075;10,129426;0;0;8,742027283;26,73999977;60,6593399;20,04883957;70,05253601;0,071843587;
00:00:18.100;10,129426;0;0;8,743553162;26,73999977;60,90354156;20,04883957;70,05253601;0;
00:00:18.125;10,129426;0;0;8,745079041;26,73999977;60,19536209;20,04883957;70,05253601;0;
00:00:18.150;10,129426;0;0;8,745079041;26,73999977;59,73138046;20,29304123;70,42253876;0;
00:00:18.175;10,129426;0;0;8,746604919;26,73999977;59,09645844;20,29304123;70,42253876;0;
00:00:18.200;10,129426;0;0;8,746604919;26,73999977;56,70329666;20,29304123;70,42253876;0;
00:00:18.225;10,129426;0;0;8,746604919;26,73999977;54,70085526;20,29304123;70,42253876;0;
00:00:18.250;10,129426;0;0;8,746604919;26,73999977;50,98900986;20,29304123;70,42253876;0;
00:00:18.275;10,129426;0;0;8,745079041;26,73999977;50,06105042;20,29304123;70,42253876;0;
00:00:18.300;10,129426;0;0;8,743553162;26,73999977;48,88888931;20,29304123;70,42253876;0;
00:00:18.325;10,129426;0;0;8,742027283;26,73999977;47,96092606;20,29304123;70,42253876;0;
00:00:18.350;10,129426;0;0;8,742027283;26,73999977;47,25274658;20,29304123;70,42253876;0;
00:00:18.375;10,129426;0;0;8,742027283;26,73999977;47,25274658;20,29304123;70,42253876;0;
00:00:18.400;10,129426;0;0;8,742027283;26,75;45,56776428;20,29304123;70,42253876;0;
00:00:18.425;10,129426;0;0;8,743553162;26,75;45,29914474;20,29304123;70,42253876;0,05747487;
00:00:18.450;10,129426;0;0;8,743553162;26,75;43,51648331;20,29304123;70,42253876;0,05747487;
00:00:18.475;10,129426;0;0;8,743553162;26,75;43,73626328;20,29304123;70,42253876;0,05747487;
00:00:18.500;10,129426;0;0;8,743553162;26,75;42,8571434;20,29304123;70,42253876;0;
00:00:18.525;10,129426;0;0;8,745079041;26,75;43,22344208;20,29304123;70,42253876;0;
00:00:18.550;10,129426;0;0;8,745079041;26,75;43,540905;20,29304123;70,42253876;0;
00:00:18.575;10,129426;0;0;8,745079041;26,75;44,17582321;20,29304123;70,42253876;0;
00:00:18.600;10,129426;0;0;8,745079041;26,75;43,78510284;20,29304123;70,42253876;0;
00:00:18.625;10,129426;0;0;8,745079041;26,75;44,3711853;20,29304123;70,42253876;0;
00:00:18.650;10,129426;0;0;8,745079041;26,75;43,68742371;20,29304123;70,42253876;0;
00:00:18.675;10,129426;0;0;8,745079041;26,75;43,93162537;20,29304123;70,42253876;0;
00:00:18.700;10,129426;0;0;8,745079041;26,75;43,7118454;20,29304123;70,42253876;0;
00:00:18.725;10,129426;0;0;8,745079041;26,75;44,15140533;20,29304123;70,42253876;0;
00:00:18.750;10,129426;0;0;8,745079041;26,75;44,15140533;20,29304123;70,42253876;0;
00:00:18.775;10,129426;0;0;8,743553162;26,75;44,34676361;20,29304123;70,42253876;0;
00:00:18.800;10,129426;0;0;8,743553162;26,75;51,55067062;20,29304123;70,42253876;0;
00:00:18.825;10,129426;0;0;8,743553162;26,75;57,89987946;20,29304123;70,42253876;0;
00:00:18.850;10,129426;0;0;8,743553162;26,75;61,58730316;20,29304123;70,42253876;0;
00:00:18.875;10,129426;0;0;8,743553162;26,75;63,22344208;20,29304123;70,42253876;0;
00:00:18.900;10,129426;0;0;8,743553162;26,75;63,05250168;20,29304123;70,42253876;0;
00:00:18.925;10,129426;0;0;8,743553162;26,75;62,29548264;20,90354156;70,92198944;0;
00:00:18.950;10,129426;0;0;8,745079041;26,75;61,53845978;20,90354156;70,92198944;0;
00:00:18.975;10,129426;0;0;8,745079041;26,75;60,1709404;20,90354156;70,92198944;0;
00:00:19.000;10,129426;0;0;8,745079041;26,75;58,80341721;20,90354156;70,92198944;0;
00:00:19.025;10,129426;0;0;8,745079041;26,75;55,16483688;20,90354156;70,92198944;0;
00:00:19.050;10,129426;0;0;8,745079041;26,75;53,08913422;20,90354156;70,92198944;0;
00:00:19.075;10,129426;0;0;8,745079041;26,75;50,59828949;20,90354156;70,92198944;0;
00:00:19.100;10,129426;0;0;8,745079041;26,75;50,03662872;20,90354156;70,92198944;0;
00:00:19.125;10,129426;0;0;8,745079041;26,75;49,81684875;20,90354156;70,92198944;0;
00:00:19.150;10,129426;0;0;8,746604919;26,75;49,15750885;20,90354156;70,92198944;0;
00:00:19.175;10,129426;0;0;8,746604919;26,75;47,61904907;20,90354156;70,92198944;0;
00:00:19.200;10,129426;0;0;8,748130798;26,75;47,25274658;20,90354156;70,92198944;0;
00:00:19.225;10,129426;0;0;8,748130798;26,75;45,56776428;20,90354156;70,92198944;0;
00:00:19.250;10,129426;0;0;8,748130798;26,75;44,98168564;20,90354156;70,92198944;0;
00:00:19.275;10,129426;0;0;8,748130798;26,75;43,93162537;20,90354156;70,92198944;0;
00:00:19.300;10,129426;0;0;8,746604919;26,75;43,78510284;20,90354156;70,92198944;0;
00:00:19.325;10,129426;0;0;8,746604919;26,75;44,29792404;20,90354156;70,92198944;0;
00:00:19.350;10,129426;0;0;8,746604919;26,75;43,7118454;20,90354156;70,92198944;0;
00:00:19.375;10,129426;0;0;8,746604919;26,75;44,29792404;20,90354156;70,92198944;0;
00:00:19.400;10,129426;0;0;8,746604919;26,75;43,83394241;20,90354156;70,92198944;0;
00:00:19.425;10,129426;0;0;8,746604919;26,75;43,83394241;20,90354156;70,92198944;0;
00:00:19.450;10,129426;0;0;8,748130798;26,75;44,05372238;20,90354156;70,92198944;0;
00:00:19.475;10,129426;0;0;8,748130798;26,75;43,95604324;20,90354156;70,92198944;0;
00:00:19.500;10,129426;0;0;8,746604919;26,75;44,22466278;20,90354156;70,92198944;0;
00:00:19.525;10,129426;0;0;8,746604919;26,75;43,98046494;20,90354156;70,92198944;0;
00:00:19.550;10,129426;0;0;8,746604919;26,75;44,81074524;20,90354156;70,92198944;0;
00:00:19.575;10,129426;0;0;8,746604919;26,75;45,8852272;20,90354156;70,92198944;0;
00:00:19.600;10,129426;0;0;8,748130798;26,75;51,33089066;20,90354156;70,92198944;0;
00:00:19.625;10,129426;0;0;8,748130798;26,75;56,67887497;20,90354156;70,92198944;0;
00:00:19.650;10,129426;0;0;8,748130798;26,76000023;60,95238113;20,90354156;70,92198944;0;
00:00:19.675;10,129426;0;0;8,749656677;26,76000023;61,8559227;20,90354156;70,92198944;0;
00:00:19.700;10,129426;0;0;8,749656677;26,76000023;61,80708313;21,02564049;73,081604;0;
00:00:19.725;10,129426;0;0;8,749656677;26,76000023;61,58730316;21,02564049;73,081604;0,05747487;
00:00:19.750;10,129426;0;0;8,749656677;26,76000023;59,38949966;21,02564049;73,081604;0,05747487;
00:00:19.775;10,129426;0;0;8,749656677;26,76000023;56,77655792;21,02564049;73,081604;0,05747487;
00:00:19.800;10,129426;0;0;8,748130798;26,76000023;54,45665359;21,02564049;73,081604;0,05747487;
00:00:19.825;10,129426;0;0;8,748130798;26,76000023;51,84371185;21,02564049;73,081604;0,05747487;
00:00:19.850;10,129426;0;0;8,748130798;26,76000023;50,30525208;21,02564049;73,081604;0,071843587;
00:00:19.875;10,129426;0;0;8,748130798;26,76000023;49,71916962;21,02564049;73,081604;0,071843587;
00:00:19.900;10,129426;0;0;8,748130798;26,76000023;49,89011002;21,02564049;73,081604;0,071843587;
00:00:19.925;10,129426;0;0;8,748130798;26,76000023;49,91453171;21,02564049;73,081604;0,071843587;
00:00:19.950;10,129426;0;0;8,749656677;26,76000023;47,42368698;21,02564049;73,081604;0,071843587;
00:00:19.975;10,129426;0;0;8,751182556;26,76000023;45,47008514;21,02564049;73,081604;0,071843587;
00:00:20.000;10,129426;0;0;8,751182556;26,76000023;45,15262604;21,02564049;73,081604;0,071843587;
00:00:20.025;10,129426;0;0;8,751182556;26,76000023;44,90842438;21,02564049;73,081604;0,071843587;
00:00:20.050;10,129426;0;0;8,751182556;26,76000023;44,61538315;21,02564049;73,081604;0,071843587;
00:00:20.075;10,129426;0;0;8,751182556;26,76000023;44,85958481;21,02564049;73,081604;0;
00:00:20.100;10,129426;0;0;8,751182556;26,76000023;44,49328613;21,02564049;73,081604;0;
00:00:20.125;10,129426;0;0;8,749656677;26,76000023;44,98168564;21,02564049;73,081604;0;
00:00:20.150;10,129426;0;0;8,749656677;26,76000023;44,2002449;21,02564049;73,081604;0;
00:00:20.175;10,129426;0;0;8,749656677;26,76000023;44,78632355;21,02564049;73,081604;0;
00:00:20.200;10,129426;0;0;8,749656677;26,76000023;44,5421257;21,02564049;73,081604;0;
00:00:20.225;10,129426;0;0;8,749656677;26,76000023;44,7130661;21,02564049;73,081604;0;
00:00:20.250;10,129426;0;0;8,749656677;26,76000023;44,51770401;21,02564049;73,081604;0;
00:00:20.275;10,129426;0;0;8,748130798;26,76000023;45,27472687;21,02564049;73,081604;0;
00:00:20.300;10,129426;0;0;8,748130798;26,76000023;44,44444275;21,02564049;73,081604;0;
00:00:20.325;10,129426;0;0;8,748130798;26,76000023;44,76190567;21,02564049;73,081604;0;
00:00:20.350;10,129426;0;0;8,748130798;26,76000023;44,32234573;21,02564049;73,081604;0;
00:00:20.375;10,129426;0;0;8,748130798;26,76000023;46,88644791;21,02564049;73,081604;0;
00:00:20.400;10,129426;0;0;8,746604919;26,76000023;51,74603271;21,02564049;73,081604;0;
00:00:20.425;10,129426;0;0;8,746604919;26,76000023;57,6556778;21,02564049;73,081604;0;
00:00:20.450;10,129426;0;0;8,746604919;26,76000023;61,48962021;21,02564049;73,081604;0,071843587;
00:00:20.475;10,129426;0;0;8,746604919;26,76000023;62,63736343;21,02564049;73,081604;0,071843587;
00:00:20.500;10,129426;0;0;8,748130798;26,76000023;60,95238113;21,02564049;74,21150208;0,071843587;
00:00:20.525;10,129426;0;0;8,748130798;26,76000023;60,75701904;21,02564049;74,21150208;0,071843587;
00:00:20.550;10,129426;0;0;8,748130798;26,76000023;58,8278389;18,85225868;74,21150208;0,071843587;
00:00:20.575;10,129426;0;0;8,748130798;26,76000023;57,41147614;18,85225868;74,21150208;0,071843587;
00:00:20.600;10,129426;0;0;8,746604919;26,76000023;55,18925476;18,85225868;74,21150208;0,071843587;
00:00:20.625;10,129426;0;0;8,746604919;26,77000046;52,64957428;18,85225868;74,21150208;0,071843587;
00:00:20.650;10,129426;0;0;8,745079041;26,77000046;51,03784943;18,85225868;74,21150208;0,071843587;
00:00:20.675;10,129426;0;0;8,743553162;26,77000046;49,57265091;18,85225868;74,21150208;0,071843587;
00:00:20.700;10,129426;0;0;8,742027283;26,77000046;50,20756912;18,85225868;74,21150208;0,071843587;
00:00:20.725;10,129426;0;0;8,742027283;26,77000046;47,10622787;18,85225868;74,21150208;0,071843587;
00:00:20.750;10,129426;0;0;8,742027283;26,77000046;45,10378647;18,85225868;74,21150208;0,071843587;
00:00:20.775;10,129426;0;0;8,742027283;26,77000046;43,76068497;18,85225868;74,21150208;0,071843587;
00:00:20.800;10,129426;0;0;8,742027283;26,77000046;43,0280838;18,85225868;74,21150208;0,071843587;
00:00:20.825;10,129426;0;0;8,743553162;26,77000046;42,39316177;18,85225868;74,21150208;0,071843587;
00:00:20.850;10,129426;0;0;8,743553162;26,77000046;42,5152626;18,85225868;74,21150208;0,071843587;
00:00:20.875;10,129426;0;0;8,743553162;26,77000046;41,58730316;18,85225868;74,21150208;0,093396664;
00:00:20.900;10,129426;0;0;8,743553162;26,77000046;42,73504257;18,85225868;74,21150208;0,093396664;
00:00:20.925;10,129426;0;0;8,743553162;26,77000046;42,17338181;18,85225868;74,21150208;0,093396664;
00:00:20.950;10,129426;0;0;8,743553162;26,77000046;42,71062088;18,85225868;74,21150208;0,093396664;
00:00:20.975;10,129426;0;0;8,743553162;26,77000046;43,39438248;18,85225868;74,21150208;0,079027951;
00:00:21.000;10,129426;0;0;8,743553162;26,77000046;44,22466278;18,85225868;74,21150208;0,079027951;
00:00:21.025;10,129426;0;0;8,743553162;26,77000046;44,8840065;18,85225868;74,21150208;0,079027951;
00:00:21.050;10,129426;0;0;8,743553162;26,77000046;45,8852272;18,85225868;74,21150208;0,079027951;
00:00:21.075;10,129426;0;0;8,743553162;26,77000046;45,86080551;18,85225868;74,21150208;0,079027951;
00:00:21.100;10,129426;0;0;8,742027283;26,77000046;47,44810867;18,85225868;74,21150208;0,107765384;
00:00:21.125;10,129426;0;0;8,742027283;26,77000046;47,78998947;18,85225868;74,21150208;0,107765384;
00:00:21.150;10,129426;0;0;8,742027283;26,77000046;48,32722855;18,85225868;74,21150208;0,107765384;
00:00:21.175;10,129426;0;0;8,742027283;26,77000046;49,35287094;18,85225868;74,21150208;0,107765384;
00:00:21.200;10,129426;0;0;8,740501404;26,77000046;53,04029465;18,85225868;74,21150208;0,107765384;
00:00:21.225;10,129426;0;0;8,740501404;26,77000046;59,29182053;18,85225868;74,21150208;0,107765384;
00:00:21.250;10,129426;0;0;8,740501404;26,77000046;67,98535156;18,85225868;74,21150208;0,107765384;
00:00:21.275;10,129426;0;0;8,740501404;26,77000046;67,76556396;18,85225868;74,21150208;0,107765384;
00:00:21.300;10,129426;0;0;8,742027283;26,77000046;67,545784;18,85225868;74,21150208;0,158055902;
00:00:21.325;10,129426;0;0;8,742027283;26,77000046;67,83882904;18,85225868;74,21150208;0,158055902;
00:00:21.350;10,129426;0;0;8,742027283;26,77000046;67,98535156;18,85225868;74,21150208;0,158055902;
00:00:21.375;10,129426;0;0;8,742027283;26,77000046;67,13064575;18,73015785;72,8155365;0,158055902;
00:00:21.400;10,129426;0;0;8,742027283;26,77000046;64,68864441;18,73015785;72,8155365;0,445430249;
00:00:21.425;10,129426;0;0;8,742027283;26,77000046;60,53723907;18,73015785;72,8155365;0,445430249;
00:00:21.450;10,129426;0;0;8,742027283;26,77000046;54,67643356;18,73015785;72,8155365;0,445430249;
00:00:21.475;10,129426;0;0;8,740501404;26,77000046;51,06227112;18,73015785;72,8155365;0,445430249;
00:00:21.500;10,129426;0;0;8,737449646;26,77000046;47,49694824;18,73015785;72,8155365;0,445430249;
00:00:21.525;10,129426;0;0;8,735923767;26,78000069;46,08058548;25,42124557;71,77033234;0,445430249;
00:00:21.550;10,129426;0;0;8,735923767;26,78000069;44,46886444;25,42124557;71,77033234;0,546011269;
00:00:21.575;10,129426;0;0;8,735923767;26,78000069;43,00366211;25,42124557;71,77033234;0,546011269;
00:00:21.600;10,129426;0;0;8,735923767;26,78000069;42,71062088;25,42124557;71,77033234;0,366402298;
00:00:21.625;10,129426;0;0;8,735923767;26,78000069;41,78266144;25,42124557;71,77033234;0,366402298;
00:00:21.650;10,129426;0;0;8,735923767;26,78000069;41,61172104;25,42124557;71,77033234;0,179608971;
00:00:21.675;10,129426;0;0;8,735923767;26,79000092;40,39072037;24,42002487;71,25891113;0,179608971;
00:00:21.700;10,129426;0;0;8,735923767;26,79000092;41,1721611;24,42002487;71,25891113;0,179608971;
00:00:21.725;10,129426;0;0;8,737449646;26,79000092;40,5128212;24,42002487;71,25891113;0,179608971;
00:00:21.750;10,129426;0;0;8,737449646;26,79000092;40,24420166;24,42002487;71,25891113;0,201162055;
00:00:21.775;10,129426;0;0;8,737449646;26,79000092;39,80463791;24,42002487;71,25891113;0,201162055;
00:00:21.800;10,129426;0;0;8,737449646;26,79000092;39,58485794;24,42002487;71,25891113;0,143687174;
00:00:21.825;10,129426;0;0;8,737449646;26,79000092;40,02442169;24,42002487;71,25891113;0,143687174;
00:00:21.850;10,129426;0;0;8,737449646;26,79000092;39,6581192;24,42002487;71,25891113;0,143687174;
00:00:21.875;10,129426;0;0;8,735923767;26,79999924;39,68254089;24,42002487;71,34363556;0,143687174;
00:00:21.900;10,129426;0;0;8,735923767;26,79999924;37,92429733;24,42002487;71,34363556;0,158055902;
00:00:21.925;10,129426;0;0;8,735923767;26,79999924;37,26495743;24,42002487;71,34363556;0,158055902;
00:00:21.950;10,129426;0;0;8,735923767;26,79999924;36,8009758;24,42002487;71,34363556;0,129318461;
00:00:21.975;10,129426;0;0;8,735923767;26,79999924;36,55677795;24,42002487;71,34363556;0,129318461;
00:00:22.000;10,129426;0;0;8,735923767;26,79999924;36,60561752;24,42002487;71,34363556;0,079027951;
00:00:22.025;10,129426;0;0;8,735923767;26,80999947;36,8009758;23,46764374;71,38607788;0,079027951;
00:00:22.050;10,129426;0;0;8,735923767;26,80999947;37,33821869;23,46764374;71,38607788;0,079027951;
00:00:22.075;10,129426;0;0;8,734397888;26,80999947;39,56044006;23,46764374;71,38607788;0,079027951;
00:00:22.100;10,129426;0;0;8,734397888;26,81999969;45,12820435;23,46764374;71,38607788;0,107765384;
00:00:22.125;10,129426;0;0;8,734397888;26,81999969;50,01221085;23,46764374;71,38607788;0,107765384;
00:00:22.150;10,129426;0;0;8,734397888;26,81999969;54,92063522;23,46764374;71,38607788;0,107765384;
00:00:22.175;10,129426;0;0;8,734397888;26,81999969;57,02075577;24,44444466;71,42857361;0,107765384;
00:00:22.200;10,129426;0;0;8,734397888;26,81999969;58,36385727;24,44444466;71,42857361;0,079027951;
00:00:22.225;10,129426;0;0;8,734397888;26,81999969;59,26739883;24,44444466;71,42857361;0,079027951;
00:00:22.250;10,129426;0;0;8,734397888;26,81999969;59,85348129;24,44444466;71,42857361;0,107765384;
00:00:22.275;10,129426;0;0;8,734397888;26,81999969;60,36629868;24,44444466;71,42857361;0,107765384;
00:00:22.300;10,129426;0;0;8,732871056;26,81999969;58,94993973;24,44444466;71,42857361;0,05747487;
00:00:22.325;10,129426;0;0;8,732871056;26,80999947;57,21611786;24,44444466;71,42857361;0,05747487;
00:00:22.350;10,129426;0;0;8,731345177;26,80999947;53,43101501;24,44444466;71,42857361;0,071843587;
00:00:22.375;10,129426;0;0;8,728293419;26,80999947;51,33089066;24,44444466;71,42857361;0,071843587;
00:00:22.400;10,129426;0;0;8,728293419;26,80999947;50,06105042;24,44444466;71,42857361;0,179608971;
00:00:22.425;10,129426;0;0;8,72676754;26,80999947;49,69474792;24,44444466;71,42857361;0,179608971;
00:00:22.450;10,129426;0;0;8,72676754;26,80999947;49,45055008;24,44444466;71,42857361;0,143687174;
00:00:22.475;10,129426;0;0;8,72676754;26,80999947;48,32722855;24,44444466;71,42857361;0,143687174;
00:00:22.500;10,129426;0;0;8,725241661;26,80999947;47,64346695;24,44444466;71,42857361;0,093396664;
00:00:22.525;10,129426;0;0;8,72676754;26,80999947;45,73870468;24,44444466;71,42857361;0,093396664;
00:00:22.550;10,129426;0;0;8,72676754;26,80999947;45,20146561;24,44444466;71,42857361;0,129318461;
00:00:22.575;10,129426;0;0;8,72676754;26,80999947;43,49206161;24,44444466;71,42857361;0,129318461;
00:00:22.600;10,129426;0;0;8,72676754;26,80999947;42,95482254;24,44444466;71,42857361;0,143687174;
00:00:22.625;10,129426;0;0;8,72676754;26,80999947;42,31990051;24,44444466;71,42857361;0,143687174;
00:00:22.650;10,129426;0;0;8,72676754;26,80999947;42,1978035;24,44444466;71,42857361;0,107765384;
00:00:22.675;10,129426;0;0;8,72676754;26,80999947;42,3687439;24,44444466;71,42857361;0,107765384;
00:00:22.700;10,129426;0;0;8,728293419;26,80999947;42,05128098;24,44444466;71,42857361;0;
00:00:22.725;10,129426;0;0;8,728293419;26,80999947;43,00366211;24,44444466;71,42857361;0;
00:00:22.750;10,129426;0;0;8,728293419;26,80999947;42,97924423;24,44444466;71,42857361;0,05747487;
00:00:22.775;10,129426;0;0;8,728293419;26,80999947;43,7118454;24,44444466;71,42857361;0,05747487;
00:00:22.800;10,129426;0;0;8,728293419;26,80999947;43,68742371;24,44444466;71,42857361;0,179608971;
00:00:22.825;10,129426;0;0;8,728293419;26,80999947;44,46886444;24,44444466;71,42857361;0,179608971;
00:00:22.850;10,129426;0;0;8,728293419;26,80999947;44,81074524;24,44444466;71,42857361;0,215530768;
00:00:22.875;10,129426;0;0;8,728293419;26,80999947;44,7130661;24,44444466;71,42857361;0,215530768;
00:00:22.900;10,129426;0;0;8,72676754;26,80999947;45,39682388;24,44444466;71,42857361;0,143687174;
00:00:22.925;10,129426;0;0;8,72676754;26,80999947;44,78632355;24,44444466;71,42857361;0,143687174;
00:00:22.950;10,129426;0;0;8,72676754;26,80999947;45,86080551;24,44444466;71,42857361;0,107765384;
00:00:22.975;10,129426;0;0;8,72676754;26,80999947;46,39804459;24,44444466;71,42857361;0,107765384;
00:00:23.000;10,129426;0;0;8,72676754;26,80999947;47,59462738;24,44444466;71,42857361;0,704067171;
00:00:23.025;10,129426;0;0;8,728293419;26,80999947;50,84249115;24,44444466;71,42857361;0,704067171;
00:00:23.050;10,129426;0;0;8,728293419;26,80999947;56,58119583;24,44444466;71,42857361;0,732804596;
00:00:23.075;10,129426;0;0;8,729819298;26,80999947;62,41758347;24,44444466;71,42857361;0,732804596;
00:00:23.100;10,129426;0;0;8,729819298;26,80999947;65,07936859;24,44444466;71,42857361;0,165240258;
00:00:23.125;10,129426;0;0;8,729819298;26,80999947;66,61782837;24,44444466;71,42857361;0,165240258;
00:00:23.150;10,129426;0;0;8,729819298;26,80999947;65,32356262;24,44444466;71,42857361;0,129318461;
00:00:23.175;10,129426;0;0;8,729819298;26,80999947;65,25030518;24,44444466;71,42857361;0,129318461;
00:00:23.200;10,129426;0;0;8,729819298;26,80999947;64,15140533;24,44444466;71,42857361;0,05747487;
00:00:23.225;10,129426;0;0;8,728293419;26,80999947;63,7118454;24,44444466;71,42857361;0,05747487;
00:00:23.250;10,129426;0;0;8,72676754;26,80999947;62,07570267;24,44444466;71,42857361;0,05747487;
00:00:23.275;10,129426;0;0;8,72676754;26,80999947;58,29059982;24,44444466;71,42857361;0,05747487;
00:00:23.300;10,129426;0;0;8,725241661;26,80999947;54,96947479;24,44444466;71,42857361;0,05747487;
00:00:23.325;10,129426;0;0;8,725241661;26,80999947;52,23443222;24,44444466;71,42857361;0,05747487;
00:00:23.350;10,129426;0;0;8,72676754;26,80999947;51,40415192;24,44444466;71,42857361;0,05747487;
00:00:23.375;10,129426;0;0;8,72676754;26,80999947;49,84127045;24,44444466;71,42857361;0,05747487;
00:00:23.400;10,129426;0;0;8,728293419;26,80999947;49,52381134;24,44444466;71,42857361;0,05747487;
00:00:23.425;10,129426;0;0;8,728293419;26,80999947;47,59462738;24,44444466;71,42857361;0,05747487;
00:00:23.450;10,129426;0;0;8,728293419;26,80999947;46,00732422;24,44444466;71,42857361;0,05747487;
00:00:23.475;10,129426;0;0;8,729819298;26,80999947;44,7130661;24,44444466;71,42857361;0,05747487;
00:00:23.500;10,129426;0;0;8,729819298;26,80999947;43,540905;24,44444466;71,42857361;0,05747487;
00:00:23.525;10,129426;0;0;8,729819298;26,80999947;43,29670334;24,44444466;71,42857361;0,05747487;
00:00:23.550;10,129426;0;0;8,729819298;26,80999947;41,53845978;24,44444466;71,42857361;0,05747487;
00:00:23.575;10,129426;0;0;8,729819298;26,80999947;41,58730316;24,44444466;71,42857361;0,05747487;
00:00:23.600;10,129426;0;0;8,729819298;26,80999947;40,87911987;24,44444466;71,42857361;0,05747487;
00:00:23.625;10,129426;0;0;8,731345177;26,80999947;40,95238113;24,44444466;71,42857361;0,05747487;
00:00:23.650;10,129426;0;0;8,731345177;26,80999947;40,48839951;24,44444466;71,42857361;0,05747487;
00:00:23.675;10,129426;0;0;8,731345177;26,80999947;40,70817947;24,44444466;71,42857361;0,05747487;
00:00:23.700;10,129426;0;0;8,731345177;26,80999947;41,29426193;24,44444466;71,42857361;0,05747487;
00:00:23.725;10,129426;0;0;8,731345177;26,80999947;41,56288147;24,44444466;71,42857361;0,05747487;
00:00:23.750;10,129426;0;0;8,731345177;26,80999947;42,83272171;24,44444466;71,42857361;0,05747487;
00:00:23.775;10,129426;0;0;8,731345177;26,80999947;42,75946426;24,44444466;71,42857361;0,05747487;
00:00:23.800;10,129426;0;0;8,731345177;26,80999947;43,51648331;24,44444466;71,42857361;0,05747487;
00:00:23.825;10,129426;0;0;8,732871056;26,80999947;43,76068497;24,44444466;71,42857361;0,05747487;
00:00:23.850;10,129426;0;0;8,732871056;26,80999947;44,24908447;24,44444466;71,42857361;0,05747487;
00:00:23.875;10,129426;0;0;8,732871056;26,80999947;44,42002487;24,44444466;71,42857361;0,05747487;
00:00:23.900;10,129426;0;0;8,734397888;26,80999947;45,0549469;24,44444466;71,42857361;0,05747487;
00:00:23.925;10,129426;0;0;8,735923767;26,80999947;48,64468765;24,44444466;71,42857361;0,05747487;
00:00:23.950;10,129426;0;0;8,737449646;26,80999947;53,45543289;24,44444466;71,42857361;0,05747487;
00:00:23.975;10,129426;0;0;8,738975525;26,80999947;59,68254089;24,44444466;71,42857361;0,05747487;
00:00:24.000;10,129426;0;0;8,740501404;26,80999947;61,97802353;24,44444466;71,42857361;0,05747487;
00:00:24.025;10,129426;0;0;8,740501404;26,80999947;63,1990242;24,44444466;71,42857361;0,05747487;
00:00:24.050;10,129426;0;0;8,740501404;26,80999947;62,46642303;24,44444466;71,42857361;0,05747487;
00:00:24.075;10,129426;0;0;8,742027283;26,80999947;61,44078064;24,44444466;71,42857361;0,05747487;
00:00:24.100;10,129426;0;0;8,742027283;26,80999947;60,43955994;24,44444466;71,42857361;0,05747487;
00:00:24.125;10,129426;0;0;8,743553162;26,80999947;59,56044006;24,44444466;71,42857361;0,05747487;
00:00:24.150;10,129426;0;0;8,743553162;26,80999947;58,80341721;24,44444466;71,42857361;0,05747487;
00:00:24.175;10,129426;0;0;8,743553162;26,80999947;56,31257629;24,44444466;71,42857361;0,05747487;
00:00:24.200;10,129426;0;0;8,743553162;26,80999947;54,79853439;24,44444466;71,42857361;0,05747487;
00:00:24.225;10,129426;0;0;8,745079041;26,80999947;52,33211136;24,44444466;71,42857361;0,05747487;
00:00:24.250;10,129426;0;0;8,745079041;26,80999947;51,69719315;24,44444466;71,42857361;0,05747487;
00:00:24.275;10,129426;0;0;8,746604919;26,80999947;50,59828949;24,44444466;71,42857361;0,05747487;
00:00:24.300;10,129426;0;0;8,746604919;26,80999947;49,86568832;24,44444466;71,42857361;0,05747487;
00:00:24.325;10,129426;0;0;8,748130798;26,80999947;49,49938965;24,44444466;71,42857361;0,05747487;
00:00:24.350;10,129426;0;0;8,748130798;26,80999947;48,22954941;24,44444466;71,42857361;0,05747487;
00:00:24.375;10,129426;0;0;8,748130798;26,80999947;47,83882904;24,44444466;71,42857361;0,05747487;
00:00:24.400;10,129426;0;0;8,749656677;26,80999947;45,76312637;24,44444466;71,42857361;0,05747487;
00:00:24.425;10,129426;0;0;8,751182556;26,80999947;45,25030518;24,44444466;71,42857361;0,05747487;
00:00:24.450;10,129426;0;0;8,751182556;26,80999947;43,63858414;24,44444466;71,42857361;0,05747487;
00:00:24.475;10,129426;0;0;8,752708435;26,80999947;43,05250168;24,44444466;71,42857361;0,05747487;
00:00:24.500;10,129426;0;0;8,752708435;26,80999947;42,58852386;24,44444466;71,42857361;0,05747487;
00:00:24.525;10,129426;0;0;8,754234314;26,80999947;42,78388214;24,44444466;71,42857361;0,05747487;
00:00:24.550;10,129426;0;0;8,754234314;26,80999947;43,32112503;24,44444466;71,42857361;0,05747487;
00:00:24.575;10,129426;0;0;8,755760193;26,80999947;42,46642303;24,44444466;71,42857361;0,05747487;
00:00:24.600;10,129426;0;0;8,757286072;26,80999947;43,0280838;24,44444466;71,42857361;0,05747487;
00:00:24.625;10,129426;0;0;8,758811951;26,80999947;42,66178131;24,44444466;71,42857361;0,05747487;
00:00:24.650;10,129426;0;0;8,758811951;26,80999947;43,66300201;24,44444466;71,42857361;0,05747487;
00:00:24.675;10,129426;0;0;8,76033783;26,80999947;43,27228165;24,44444466;71,42857361;0,05747487;
00:00:24.700;10,129426;0;0;8,761863708;26,80999947;43,63858414;24,44444466;71,42857361;0,05747487;
00:00:24.725;10,129426;0;0;8,761863708;26,80999947;43,90720367;24,44444466;71,42857361;0,05747487;
00:00:24.750;10,129426;0;0;8,761863708;26,80999947;44,39560318;24,44444466;71,42857361;0,05747487;
00:00:24.775;10,129426;0;0;8,763389587;26,80999947;45,22588348;24,44444466;71,42857361;0,05747487;
00:00:24.800;10,129426;0;0;8,764915466;26,80999947;44,24908447;24,44444466;71,42857361;0,05747487;
00:00:24.825;10,129426;0;0;8,766442299;26,80999947;46,15384674;24,44444466;71,42857361;0,05747487;
00:00:24.850;10,129426;0;0;8,767968178;26,80999947;49,13309097;24,44444466;71,42857361;0,05747487;
00:00:24.875;10,129426;0;0;8,769494057;26,80999947;55,38461685;24,44444466;71,42857361;0,05747487;
00:00:24.900;10,129426;0;0;8,769494057;26,80999947;60,1709404;24,44444466;71,42857361;0,05747487;
00:00:24.925;10,129426;0;0;8,771019936;26,80999947;62,80830383;24,44444466;71,42857361;0,05747487;
00:00:24.950;10,129426;0;0;8,772545815;26,80999947;63,34554291;24,44444466;71,42857361;0,05747487;
00:00:24.975;10,129426;0;0;8,772545815;26,80999947;62,24664307;24,44444466;71,42857361;0,05747487;
00:00:25.000;10,129426;0;0;8,772545815;26,80999947;61,6849823;24,44444466;71,42857361;0,05747487;
00:00:25.025;10,129426;0;0;8,772545815;26,80999947;59,51160049;24,44444466;71,42857361;0,05747487;
00:00:25.050;10,129426;0;0;8,772545815;26,80999947;58,53479767;24,44444466;71,42857361;0,05747487;
00:00:25.075;10,129426;0;0;8,772545815;26,80999947;55,82417679;24,44444466;71,42857361;0,05747487;
00:00:25.100;10,129426;0;0;8,774071693;26,80999947;52,96703339;24,44444466;71,42857361;0,05747487;
00:00:25.125;10,129426;0;0;8,775597572;26,80999947;50,10988998;24,44444466;71,42857361;0,05747487;
00:00:25.150;10,129426;0;0;8,777123451;26,80999947;48,15628815;24,44444466;71,42857361;0,05747487;
00:00:25.175;10,129426;0;0;8,77864933;26,80999947;47,81440735;24,44444466;71,42857361;0,05747487;
00:00:25.200;10,129426;0;0;8,780175209;26,80999947;46,69108582;24,44444466;71,42857361;0,05747487;
00:00:25.225;10,129426;0;0;8,781701088;26,80999947;46,66666794;24,44444466;71,42857361;0,05747487;
00:00:25.250;10,129426;0;0;8,781701088;26,80999947;44,95726395;24,44444466;71,42857361;0,05747487;
00:00:25.275;10,129426;0;0;8,784752846;26,80999947;44,34676361;24,44444466;71,42857361;0,05747487;
00:00:25.300;10,129426;0;0;8,787804604;26,80999947;43,15018463;24,44444466;71,42857361;0,05747487;
00:00:25.325;10,129426;0;0;8,789330482;26,80999947;42,44200134;24,44444466;71,42857361;0,05747487;
00:00:25.350;10,129426;0;0;8,79238224;26,80999947;42,0268631;24,44444466;71,42857361;0,05747487;
00:00:25.375;10,129426;0;0;8,793908119;26,80999947;41,61172104;24,44444466;71,42857361;0,05747487;
00:00:25.400;10,129426;0;0;8,795433998;26,80999947;41,88034058;24,44444466;71,42857361;0,05747487;
00:00:25.425;10,129426;0;0;8,795433998;26,80999947;40,41514206;24,44444466;71,42857361;0,05747487;
00:00:25.450;10,129426;0;0;8,796960831;26,80999947;40,78144073;24,44444466;71,42857361;0,05747487;
00:00:25.475;10,129426;0;0;8,79848671;26,80999947;40,46398163;24,44444466;71,42857361;0,05747487;
00:00:25.500;10,129426;0;0;8,801538467;26,80999947;41,09889984;24,44444466;71,42857361;0,05747487;
00:00:25.525;10,129426;0;0;8,803064346;26,80999947;41,70940018;24,44444466;71,42857361;0,05747487;
00:00:25.550;10,129426;0;0;8,804590225;26,80999947;42,5396843;24,44444466;71,42857361;0,05747487;
00:00:25.575;10,129426;0;0;8,806116104;26,80999947;43,73626328;24,44444466;71,42857361;0,05747487;
00:00:25.600;10,129426;0;0;8,806116104;26,80999947;43,93162537;24,44444466;71,42857361;0,05747487;
00:00:25.625;10,129426;0;0;8,807641983;26,80999947;44,78632355;24,44444466;71,42857361;0,05747487;
00:00:25.650;10,129426;0;0;8,810693741;26,80999947;44,81074524;24,44444466;71,42857361;0,05747487;
00:00:25.675;10,129426;0;0;8,81221962;26,80999947;46,37362671;24,44444466;71,42857361;0,05747487;
00:00:25.700;10,129426;0;0;8,813745499;26,80999947;46,81318665;24,44444466;71,42857361;0,05747487;
00:00:25.725;10,129426;0;0;8,816797256;26,80999947;48,13186646;24,44444466;71,42857361;0,05747487;
00:00:25.750;10,129426;0;0;8,818323135;26,80999947;50,32966995;24,44444466;71,42857361;0,05747487;
00:00:25.775;10,129426;0;0;8,818323135;26,80999947;54,82295609;24,44444466;71,42857361;0,05747487;
00:00:25.800;10,129426;0;0;8,818323135;26,80999947;60,92795944;24,44444466;71,42857361;0,05747487;
00:00:25.825;10,129426;0;0;8,819849014;26,80999947;64,0293045;24,44444466;71,42857361;0,05747487;
00:00:25.850;10,129426;0;0;8,819849014;26,80999947;67,00854492;24,44444466;71,42857361;0,05747487;
00:00:25.875;10,129426;0;0;8,821374893;26,80999947;65,66544342;24,44444466;71,42857361;0,05747487;
00:00:25.900;10,129426;0;0;8,822900772;26,80999947;64,17582703;24,44444466;71,42857361;0,05747487;
00:00:25.925;10,129426;0;0;8,824426651;26,80999947;62,14896393;24,44444466;71,42857361;0,05747487;
00:00:25.950;10,129426;0;0;8,824426651;26,80999947;60,29304123;24,44444466;71,42857361;0,05747487;
00:00:25.975;10,129426;0;0;8,827478409;26,80999947;58,09523773;24,44444466;71,42857361;0,05747487;
00:00:26.000;10,129426;0;0;8,83053112;26,80999947;55,14041519;24,44444466;71,42857361;0,05747487;
00:00:26.025;10,129426;0;0;8,832056999;26,80999947;52,72283173;24,44444466;71,42857361;0,05747487;
00:00:26.050;10,129426;0;0;8,833582878;26,80999947;50,98900986;24,44444466;71,42857361;0,05747487;
00:00:26.075;10,129426;0;0;8,836634636;26,80999947;51,13553238;24,44444466;71,42857361;0,05747487;
00:00:26.100;10,129426;0;0;8,838160515;26,80999947;50,23199081;24,44444466;71,42857361;0,05747487;
00:00:26.125;10,129426;0;0;8,838160515;26,80999947;50,42734909;24,44444466;71,42857361;0,05747487;
00:00:26.150;10,129426;0;0;8,839686394;26,80999947;49,54822922;24,44444466;71,42857361;0,05747487;
00:00:26.175;10,129426;0;0;8,842738152;26,80999947;49,10866928;24,44444466;71,42857361;0,05747487;
00:00:26.200;10,129426;0;0;8,84426403;26,80999947;48,88888931;24,44444466;71,42857361;0,05747487;
00:00:26.225;10,129426;0;0;8,847315788;26,80999947;47,96092606;24,44444466;71,42857361;0,05747487;
00:00:26.250;10,129426;0;0;8,850367546;26,80999947;47,3992691;24,44444466;71,42857361;0,05747487;
00:00:26.275;10,129426;0;0;8,851893425;26,80999947;45,68986511;24,44444466;71,42857361;0,05747487;
00:00:26.300;10,129426;0;0;8,851893425;26,80999947;45,27472687;24,44444466;71,42857361;0,05747487;
00:00:26.325;10,129426;0;0;8,854945183;26,80999947;44,46886444;24,44444466;71,42857361;0,05747487;
00:00:26.350;10,129426;0;0;8,856471062;26,80999947;45,07936478;24,44444466;71,42857361;0,05747487;
00:00:26.375;10,129426;0;0;8,859523773;26,80999947;46,0561676;24,44444466;71,42857361;0,05747487;
00:00:26.400;10,129426;0;0;8,862575531;26,80999947;46,42246628;24,44444466;71,42857361;0,05747487;
00:00:26.425;10,129426;0;0;8,865627289;26,80999947;46,86202621;24,44444466;71,42857361;0,05747487;
00:00:26.450;10,129426;0;0;8,868679047;26,80999947;45,56776428;24,44444466;71,42857361;0,05747487;
00:00:26.475;10,129426;0;0;8,868679047;26,80999947;45,00610352;24,44444466;71,42857361;0,05747487;
00:00:26.500;10,129426;0;0;8,870204926;26,80999947;43,17460251;24,44444466;71,42857361;0,05747487;
00:00:26.525;10,129426;0;0;8,874782562;26,80999947;43,05250168;24,44444466;71,42857361;0,05747487;
00:00:26.550;10,129426;0;0;8,87783432;26,80999947;42,07570267;24,44444466;71,42857361;0,05747487;
00:00:26.575;10,129426;0;0;8,882411957;26,80999947;41,73382187;24,44444466;71,42857361;0,05747487;
00:00:26.600;10,129426;0;0;8,885463715;26,80999947;41,46520233;24,44444466;71,42857361;0,05747487;
00:00:26.625;10,129426;0;0;8,888515472;26,80999947;41,92918015;24,44444466;71,42857361;0,05747487;
00:00:26.650;10,129426;0;0;8,888515472;26,80999947;44,95726395;24,44444466;71,42857361;0,05747487;
00:00:26.675;10,129426;0;0;8,891568184;26,80999947;48,86446762;24,44444466;71,42857361;0,05747487;
00:00:26.700;10,129426;0;0;8,894619942;26,80999947;54,1147728;24,44444466;71,42857361;0,05747487;
00:00:26.725;10,129426;0;0;8,896145821;26,80999947;56,04395676;24,44444466;71,42857361;0,05747487;
00:00:26.750;10,129426;0;0;8,899197578;26,80999947;56,99633789;24,44444466;71,42857361;0,05747487;
00:00:26.775;10,129426;0;0;8,900723457;26,80999947;55,77533722;24,44444466;71,42857361;0,05747487;
00:00:26.800;10,129426;0;0;8,902249336;26,80999947;54,65201569;24,44444466;71,42857361;0,05747487;
00:00:26.825;10,129426;0;0;8,902249336;26,80999947;54,77411652;24,44444466;71,42857361;0,05747487;
00:00:26.850;10,129426;0;0;8,905301094;26,80999947;54,09035492;24,44444466;71,42857361;0,05747487;
00:00:26.875;10,129426;0;0;8,906826973;26,80999947;53,65079498;24,44444466;71,42857361;0,05747487;
00:00:26.900;10,129426;0;0;8,909878731;26,80999947;51,03784943;24,44444466;71,42857361;0,05747487;
00:00:26.925;10,129426;0;0;8,912930489;26,80999947;49,25518799;24,44444466;71,42857361;0,05747487;
00:00:26.950;10,129426;0;0;8,915982246;26,80999947;48,25396729;24,44444466;71,42857361;0,05747487;
00:00:26.975;10,129426;0;0;8,917508125;26,80999947;48,84004974;24,44444466;71,42857361;0,05747487;
00:00:27.000;10,129426;0;0;8,917508125;26,80999947;49,89011002;24,44444466;71,42857361;0,05747487;
00:00:27.025;10,129426;0;0;8,920559883;26,80999947;50,35409164;24,44444466;71,42857361;0,05747487;
00:00:27.050;10,129426;0;0;8,925138474;26,80999947;50,69597244;24,44444466;71,42857361;0,05747487;
00:00:27.075;10,129426;0;0;8,928190231;26,80999947;49,69474792;24,44444466;71,42857361;0,05747487;
00:00:27.100;10,129426;0;0;8,931241989;26,80999947;50,35409164;24,44444466;71,42857361;0,05747487;
00:00:27.125;10,129426;0;0;8,934293747;26,80999947;48,74237061;24,44444466;71,42857361;0,05747487;
00:00:27.150;10,129426;0;0;8,937345505;26,80999947;47,52136612;24,44444466;71,42857361;0,05747487;
00:00:27.175;10,129426;0;0;8,937345505;26,80999947;45,44566727;24,44444466;71,42857361;0,05747487;
00:00:27.200;10,129426;0;0;8,940397263;26,80999947;45,03052521;24,44444466;71,42857361;0,05747487;
00:00:27.225;10,129426;0;0;8,94344902;26,80999947;45,0549469;24,44444466;71,42857361;0,05747487;
00:00:27.250;10,129426;0;0;8,946500778;26,80999947;45,20146561;24,44444466;71,42857361;0,05747487;
00:00:27.275;10,129426;0;0;8,948026657;26,80999947;45,25030518;24,44444466;71,42857361;0,05747487;
00:00:27.300;10,129426;0;0;8,951078415;26,80999947;44,5421257;24,44444466;71,42857361;0,05747487;
00:00:27.325;10,129426;0;0;8,952604294;26,80999947;44,63980484;24,44444466;71,42857361;0,05747487;
00:00:27.350;10,129426;0;0;8,952604294;26,80999947;43,66300201;24,44444466;71,42857361;0,05747487;
00:00:27.375;10,129426;0;0;8,955657005;26,80999947;42,80830383;24,44444466;71,42857361;0,05747487;
00:00:27.400;10,129426;0;0;8,958708763;26,80999947;42,14896393;24,44444466;71,42857361;0,05747487;
00:00:27.425;10,129426;0;0;8,961760521;26,80999947;42,12454224;24,44444466;71,42857361;0,05747487;
00:00:27.450;10,129426;0;0;8,964812279;26,80999947;42,1978035;24,44444466;71,42857361;0,05747487;
00:00:27.475;10,129426;0;0;8,967864037;26,80999947;41,83150101;24,44444466;71,42857361;0,05747487;
00:00:27.500;10,129426;0;0;8,972441673;26,80999947;42,3687439;24,44444466;71,42857361;0,05747487;
00:00:27.525;10,129426;0;0;8,972441673;26,80999947;42,3443222;24,44444466;71,42857361;0,05747487;
00:00:27.550;10,129426;0;0;8,975493431;26,80999947;45,95848465;24,44444466;71,42857361;0,05747487;
00:00:27.575;10,129426;0;0;8,975493431;26,80999947;51,42856979;24,44444466;71,42857361;0,05747487;
00:00:27.600;10,129426;0;0;8,97701931;26,80999947;57,11843872;24,44444466;71,42857361;0,05747487;
00:00:27.625;10,129426;0;0;8,978545189;26,80999947;60,12210083;24,44444466;71,42857361;0,05747487;
00:00:27.650;10,129426;0;0;8,980071068;26,80999947;60,92795944;24,44444466;71,42857361;0,05747487;
00:00:27.675;10,129426;0;0;8,983122826;26,80999947;60,39072037;24,44444466;71,42857361;0,05747487;
00:00:27.700;10,129426;0;0;8,983122826;26,80999947;59,38949966;24,44444466;71,42857361;0,05747487;
00:00:27.725;10,129426;0;0;8,986175537;26,80999947;59,43833923;24,44444466;71,42857361;0,05747487;
00:00:27.750;10,129426;0;0;8,989227295;26,80999947;58,19291687;24,44444466;71,42857361;0,05747487;
00:00:27.775;10,129426;0;0;8,992279053;26,80999947;57,16727829;24,44444466;71,42857361;0,05747487;
00:00:27.800;10,129426;0;0;8,995330811;26,80999947;54,38339615;24,44444466;71,42857361;0,05747487;
00:00:27.825;10,129426;0;0;8,998382568;26,80999947;51,55067062;24,44444466;71,42857361;0,05747487;
00:00:27.850;10,129426;0;0;8,999908447;26,80999947;49,69474792;24,44444466;71,42857361;0,05747487;
00:00:27.875;10,129426;0;0;8,999908447;26,80999947;48,91330719;24,44444466;71,42857361;0,05747487;
00:00:27.900;10,129426;0;0;8,999908447;26,80999947;49,18193054;24,44444466;71,42857361;0,05747487;
00:00:27.925;10,129426;0;0;9,001434326;26,80999947;47,93650818;24,44444466;71,42857361;0,05747487;
00:00:27.950;10,129426;0;0;9,002960205;26,80999947;47,98534775;24,44444466;71,42857361;0,05747487;
00:00:27.975;10,129426;0;0;9,004486084;26,80999947;46,42246628;24,44444466;71,42857361;0,05747487;
00:00:28.000;10,129426;0;0;9,004486084;26,80999947;45,59218597;24,44444466;71,42857361;0,05747487;
00:00:28.025;10,129426;0;0;9,006011963;26,80999947;44,15140533;24,44444466;71,42857361;0,05747487;
00:00:28.050;10,129426;0;0;9,006011963;26,80999947;43,12576294;24,44444466;71,42857361;0,05747487;
00:00:28.075;10,129426;0;0;9,007537842;26,80999947;42,80830383;24,44444466;71,42857361;0,05747487;
00:00:28.100;10,129426;0;0;9,009063721;26,80999947;43,32112503;24,44444466;71,42857361;0,05747487;
00:00:28.125;10,129426;0;0;9,0105896;26,80999947;44,24908447;24,44444466;71,42857361;0,05747487;
00:00:28.150;10,129426;0;0;9,013641357;26,80999947;43,46764374;24,44444466;71,42857361;0,05747487;
00:00:28.175;10,129426;0;0;9,013641357;26,80999947;45,03052521;24,44444466;71,42857361;0,05747487;
00:00:28.200;10,129426;0;0;9,015167236;26,80999947;45,90964508;24,44444466;71,42857361;0,05747487;
00:00:28.225;10,129426;0;0;9,015167236;26,80999947;47,15506744;24,44444466;71,42857361;0,05747487;
00:00:28.250;10,129426;0;0;9,016694069;26,80999947;47,83882904;24,44444466;71,42857361;0,05747487;
00:00:28.275;10,129426;0;0;9,016694069;26,80999947;48,47374725;24,44444466;71,42857361;0,05747487;
00:00:28.300;10,129426;0;0;9,018219948;26,80999947;48,93772888;24,44444466;71,42857361;0,05747487;
00:00:28.325;10,129426;0;0;9,018219948;26,80999947;48,05860901;24,44444466;71,42857361;0,05747487;
00:00:28.350;10,129426;0;0;9,018219948;26,80999947;48,54700851;24,44444466;71,42857361;0,05747487;
00:00:28.375;10,129426;0;0;9,019745827;26,80999947;47,98534775;24,44444466;71,42857361;0,05747487;
00:00:28.400;10,129426;0;0;9,019745827;26,80999947;48,64468765;24,44444466;71,42857361;0,05747487;
00:00:28.425;10,129426;0;0;9,021271706;26,80999947;49,25518799;24,44444466;71,42857361;0,05747487;
00:00:28.450;10,129426;0;0;9,021271706;26,80999947;52,96703339;24,44444466;71,42857361;0,05747487;
00:00:28.475;10,129426;0;0;9,022797585;26,80999947;57,4603157;24,44444466;71,42857361;0,05747487;
00:00:28.500;10,129426;0;0;9,024323463;26,80999947;60,12210083;24,44444466;71,42857361;0,05747487;
00:00:28.525;10,129426;0;0;9,025849342;26,80999947;61,78266144;24,44444466;71,42857361;0,05747487;
00:00:28.550;10,129426;0;0;9,025849342;26,80999947;60,36629868;24,44444466;71,42857361;0,05747487;
00:00:28.575;10,129426;0;0;9,025849342;26,80999947;59,92673874;24,44444466;71,42857361;0,05747487;
00:00:28.600;10,129426;0;0;9,027375221;26,80999947;58,09523773;24,44444466;71,42857361;0,05747487;
00:00:28.625;10,129426;0;0;9,051790237;26,80999947;53,30891418;24,44444466;71,42857361;0,05747487;
00:00:28.650;10,129426;0;0;9,053316116;26,80999947;59,02319717;24,44444466;71,42857361;0,05747487;
00:00:28.675;10,129426;0;0;9,054841995;26,80999947;60,53723907;24,44444466;71,42857361;0,05747487;
00:00:28.700;10,129426;0;0;9,054841995;26,80999947;60,78144073;24,44444466;71,42857361;0,05747487;
00:00:28.725;10,129426;0;0;9,056367874;26,80999947;60,46398163;24,44444466;71,42857361;0,05747487;
00:00:28.750;10,129426;0;0;9,057893753;26,80999947;60,46398163;24,44444466;71,42857361;0,05747487;
00:00:28.775;10,129426;0;0;9,057893753;26,80999947;59,6581192;19,21855927;71,42857361;0,05747487;
00:00:28.800;10,129426;0;0;9,059419632;26,80999947;58,33943939;19,21855927;71,42857361;0,05747487;
00:00:28.825;10,129426;0;0;9,059419632;26,80999947;53,772892;19,21855927;71,42857361;0,05747487;
00:00:28.850;10,129426;0;0;9,059419632;26,80999947;51,91697311;19,21855927;71,42857361;0,079027951;
00:00:28.875;10,129426;0;0;9,059419632;26,80999947;49,76800919;19,21855927;71,42857361;0,079027951;
00:00:28.900;10,129426;0;0;9,059419632;26,80999947;49,74359131;19,21855927;71,42857361;0,079027951;
00:00:28.925;10,129426;0;0;9,059419632;26,80999947;49,76800919;19,21855927;71,42857361;0,093396664;
00:00:28.950;10,129426;0;0;9,060945511;26,80999947;49,74359131;19,21855927;71,42857361;0,093396664;
00:00:28.975;10,129426;0;0;9,06247139;26,80999947;49,54822922;19,21855927;71,42857361;0,093396664;
00:00:29.000;10,129426;0;0;9,063997269;26,80999947;48,27838898;19,21855927;71,42857361;0,093396664;
00:00:29.025;10,129426;0;0;9,065523148;26,80999947;48,00976944;19,21855927;71,42857361;0,093396664;
00:00:29.050;10,129426;0;0;9,068574905;26,80999947;46,56898499;19,21855927;71,42857361;0,093396664;
00:00:29.075;10,129426;0;0;9,070100784;26,80999947;45,51892471;19,21855927;71,42857361;0,093396664;
00:00:29.100;10,129426;0;0;9,073152542;26,80999947;45,51892471;19,21855927;71,42857361;0,093396664;
00:00:29.125;10,129426;0;0;9,0762043;26,80999947;45,61660385;19,21855927;71,42857361;0,093396664;
00:00:29.150;10,129426;0;0;9,079257011;26,80999947;45,59218597;19,21855927;71,42857361;0,079027951;
00:00:29.175;10,129426;0;0;9,082308769;26,79999924;46,03174591;18,77899933;71,42857361;0,079027951;
00:00:29.200;10,129426;0;0;9,082308769;26,79999924;45,83638763;18,77899933;71,42857361;0,071843587;
00:00:29.225;10,129426;0;0;9,083834648;26,79999924;46,03174591;18,77899933;71,42857361;0,071843587;
00:00:29.250;10,129426;0;0;9,088412285;26,79999924;45,32356644;18,77899933;71,42857361;0,093396664;
00:00:29.275;10,129426;0;0;9,089938164;26,79999924;45,29914474;18,77899933;71,42857361;0,093396664;
00:00:29.300;10,129426;0;0;9,092989922;26,79999924;45,27472687;18,77899933;71,42857361;0,071843587;
00:00:29.325;10,129426;0;0;9,096041679;26,79999924;45,0549469;17,36263657;71,42857361;0,071843587;
00:00:29.350;10,129426;0;0;9,097567558;26,79999924;44,61538315;17,36263657;71,42857361;0,071843587;
00:00:29.375;10,129426;0;0;9,097567558;26,79999924;44,27350616;17,36263657;71,42857361;0,071843587;
00:00:29.400;10,129426;0;0;9,100619316;26,80999947;44,5421257;17,36263657;71,42857361;0,079027951;
00:00:29.425;10,129426;0;0;9,103671074;26,80999947;44,90842438;17,36263657;71,42857361;0,079027951;
00:00:29.450;10,129426;0;0;9,105196953;26,80999947;48,66910934;17,36263657;71,42857361;0,05747487;
00:00:29.475;10,129426;0;0;9,108248711;26,80999947;52,94261169;17,36263657;71,42857361;0,05747487;
00:00:29.500;10,129426;0;0;9,109775543;26,80999947;57,313797;17,36263657;71,42857361;0,071843587;
00:00:29.525;10,129426;0;0;9,11435318;26,80999947;59,145298;17,36263657;71,42857361;0,071843587;
00:00:29.550;10,129426;0;0;9,11435318;26,80999947;59,58485794;17,36263657;71,42857361;0,122134104;
00:00:29.575;10,129426;0;0;9,117404938;26,80999947;59,24298096;17,36263657;71,42857361;0,122134104;
00:00:29.600;10,129426;0;0;9,120456696;26,80999947;58,3150177;17,36263657;71,42857361;0,107765384;
00:00:29.625;10,129426;0;0;9,123508453;26,80999947;57,60683823;17,36263657;71,42857361;0,107765384;
00:00:29.650;10,129426;0;0;9,125034332;26,80999947;55,4578743;17,36263657;71,42857361;0,05747487;
00:00:29.675;10,129426;0;0;9,126560211;26,80999947;53,65079498;17,36263657;71,42857361;0,05747487;
00:00:29.700;10,129426;0;0;9,12808609;26,80999947;50,76922989;17,36263657;71,42857361;0,05747487;
00:00:29.725;10,129426;0;0;9,12808609;26,80999947;48,91330719;17,36263657;71,42857361;0,05747487;
00:00:29.750;10,129426;0;0;9,131137848;26,80999947;47,66788864;17,36263657;71,42857361;0,05747487;
00:00:29.775;10,129426;0;0;9,132663727;26,80999947;47,15506744;17,36263657;71,42857361;0,05747487;
00:00:29.800;10,129426;0;0;9,135715485;26,80999947;47,20390701;17,36263657;71,42857361;0,05747487;
00:00:29.825;10,129426;0;0;9,138767242;26,80999947;46,47130585;17,36263657;71,42857361;0,05747487;
00:00:29.850;10,129426;0;0;9,143345833;26,80999947;46,37362671;17,36263657;71,42857361;0,05747487;
00:00:29.875;10,129426;0;0;9,146397591;26,80999947;45,0549469;17,36263657;71,42857361;0,05747487;
00:00:29.900;10,129426;0;0;9,146397591;26,80999947;45,03052521;17,36263657;71,42857361;0,05747487;
00:00:29.925;10,129426;0;0;9,14792347;26,80999947;43,98046494;17,36263657;71,42857361;0,05747487;
00:00:29.950;10,129426;0;0;9,150975227;26,80999947;43,24786377;17,36263657;71,42857361;0,05747487;
00:00:29.975;10,129426;0;0;9,154026985;26,80999947;43,05250168;17,36263657;71,42857361;0,05747487;
00:00:30.000;10,129426;0;0;9,157078743;26,80999947;42,88156128;17,36263657;71,42857361;0,05747487;
00:00:30.025;10,129426;0;0;9,160130501;26,80999947;43,10134125;17,36263657;71,42857361;0,05747487;
00:00:30.050;10,129426;0;0;9,163182259;26,80999947;42,66178131;17,36263657;71,42857361;0,05747487;
00:00:30.075;10,129426;0;0;9,163182259;26,80999947;43,58974457;17,36263657;71,42857361;0,05747487;
00:00:30.100;10,129426;0;0;9,166234016;26,80999947;43,17460251;17,36263657;71,42857361;0,05747487;
00:00:30.125;10,129426;0;0;9,169285774;26,80999947;43,95604324;17,36263657;71,42857361;0,05747487;
00:00:30.150;10,129426;0;0;9,170811653;26,80999947;43,58974457;17,36263657;71,42857361;0,05747487;
00:00:30.175;10,129426;0;0;9,175390244;26,80999947;43,56532288;17,36263657;71,42857361;0,05747487;
00:00:30.200;10,129426;0;0;9,178442001;26,80999947;44,07814407;17,36263657;71,42857361;0,05747487;
00:00:30.225;10,129426;0;0;9,181493759;26,80999947;44,07814407;17,36263657;71,42857361;0,05747487;
00:00:30.250;10,129426;0;0;9,181493759;26,80999947;44,78632355;17,36263657;71,42857361;0,05747487;
00:00:30.275;10,129426;0;0;9,186071396;26,80999947;43,83394241;17,36263657;71,42857361;0,05747487;
00:00:30.300;10,129426;0;0;9,190649033;26,80999947;44,51770401;17,36263657;71,42857361;0,05747487;
00:00:30.325;10,129426;0;0;9,19370079;26,80999947;44,56654358;17,36263657;71,42857361;0,05747487;
00:00:30.350;10,129426;0;0;9,198278427;26,80999947;47,44810867;17,36263657;71,42857361;0,05747487;
00:00:30.375;10,129426;0;0;9,202856064;26,80999947;51,96581268;17,36263657;71,42857361;0,05747487;
00:00:30.400;10,129426;0;0;9,207434654;26,80999947;57,26495743;17,36263657;71,42857361;0,05747487;
00:00:30.425;10,129426;0;0;9,207434654;26,80999947;60,92795944;17,36263657;71,42857361;0,05747487;
00:00:30.450;10,129426;0;0;9,212012291;26,80999947;61,6849823;17,36263657;71,42857361;0,05747487;
00:00:30.475;10,129426;0;0;9,218115807;26,80999947;61,24542236;17,36263657;71,42857361;0,05747487;
00:00:30.500;10,129426;0;0;9,222693443;26,80999947;59,75579834;17,36263657;71,42857361;0,05747487;
00:00:30.525;10,129426;0;0;9,22727108;26,80999947;59,53601837;17,36263657;71,42857361;0,05747487;
00:00:30.550;10,129426;0;0;9,231848717;26,80999947;57,9731369;17,36263657;71,42857361;0,05747487;
00:00:30.575;10,129426;0;0;9,234901428;26,80999947;56,58119583;17,36263657;71,42857361;0,05747487;
00:00:30.600;10,129426;0;0;9,234901428;26,80999947;54,31013489;17,36263657;71,42857361;0,05747487;
00:00:30.625;10,129426;0;0;9,237953186;26,80999947;51,84371185;17,36263657;71,42857361;0,05747487;
00:00:30.650;10,129426;0;0;9,241004944;26,80999947;50,50061035;17,36263657;71,42857361;0,05747487;
00:00:30.675;10,129426;0;0;9,244056702;26,80999947;49,32844925;17,36263657;71,42857361;0,05747487;
00:00:30.700;10,129426;0;0;9,247108459;26,80999947;50,06105042;17,36263657;71,42857361;0,05747487;
00:00:30.725;10,129426;0;0;9,250160217;26,80999947;49,32844925;17,36263657;71,42857361;0,05747487;
00:00:30.750;10,129426;0;0;9,253211975;26,80999947;49,71916962;17,36263657;71,42857361;0,05747487;
00:00:30.775;10,129426;0;0;9,253211975;26,80999947;49,64590836;17,36263657;71,42857361;0,05747487;
00:00:30.800;10,129426;0;0;9,256263733;26,80999947;49,35287094;17,36263657;71,42857361;0,05747487;
00:00:30.825;10,129426;0;0;9,262367249;26,80999947;49,27960968;17,36263657;71,42857361;0,05747487;
00:00:30.850;10,129426;0;0;9,265419006;26,80999947;48,62026978;17,36263657;71,42857361;0,05747487;
